Temperature Data,ECG Data,Pressure Data,Target,Temperature Data_Centered,Temperature Data_ZScore,ECG Data_Centered,ECG Data_ZScore,Pressure Data_Centered,Pressure Data_ZScore,ECG_Log1p,Temperature_Log,Pressure_Log,ECG_Sqrt,Temp_to_Pressure,ECG_to_Temperature,Vitals_Sum,Vitals_Mean,Vitals_Range,Vitals_Std,ECG_Clipped,ECG_Is_Clipped
32.0,0.0,77.0,1,-2.293307366569998,-0.4621509104905264,-9.161037823067,-0.3361382320144755,0.08138972810000666,0.21180736403089115,0.0,1.0369220273845716,1.396949144283305,0.0,0.4155844101872155,0.0,109.0,36.333333333333336,77.0,38.68246803570493,0.0,0
32.0,0.0,77.0,1,-2.293307366569998,-0.4621509104905264,-9.161037823067,-0.3361382320144755,0.08138972810000666,0.21180736403089115,0.0,1.0369220273845716,1.396949144283305,0.0,0.4155844101872155,0.0,109.0,36.333333333333336,77.0,38.68246803570493,0.0,0
32.0,16.0,77.0,1,-2.293307366569998,-0.4621509104905264,6.838962176933,0.25093626937984914,0.08138972810000666,0.21180736403089115,2.833213344056216,1.0369220273845716,1.396949144283305,4.0,0.4155844101872155,0.49999998437500054,125.0,41.666666666666664,61.0,31.628046625318696,16.0,0
32.0,0.0,77.0,1,-2.293307366569998,-0.4621509104905264,-9.161037823067,-0.3361382320144755,0.08138972810000666,0.21180736403089115,0.0,1.0369220273845716,1.396949144283305,0.0,0.4155844101872155,0.0,109.0,36.333333333333336,77.0,38.68246803570493,0.0,0
32.0,18.0,77.0,1,-2.293307366569998,-0.4621509104905264,8.838962176933,0.3243205820541397,0.08138972810000666,0.21180736403089115,2.9444389791664403,1.0369220273845716,1.396949144283305,4.242640687119285,0.4155844101872155,0.5624999824218756,127.0,42.333333333333336,59.0,30.827476921300796,18.0,0
32.0,0.0,77.0,1,-2.293307366569998,-0.4621509104905264,-9.161037823067,-0.3361382320144755,0.08138972810000666,0.21180736403089115,0.0,1.0369220273845716,1.396949144283305,0.0,0.4155844101872155,0.0,109.0,36.333333333333336,77.0,38.68246803570493,0.0,0
32.0,0.0,77.0,0,-2.293307366569998,-0.4621509104905264,-9.161037823067,-0.3361382320144755,0.08138972810000666,0.21180736403089115,0.0,1.0369220273845716,1.396949144283305,0.0,0.4155844101872155,0.0,109.0,36.333333333333336,77.0,38.68246803570493,0.0,0
32.0,23.0,77.0,0,-2.293307366569998,-0.4621509104905264,13.838962176933,0.5077813637398662,0.08138972810000666,0.21180736403089115,3.1780538303479458,1.0369220273845716,1.396949144283305,4.795831523312719,0.4155844101872155,0.7187499775390632,132.0,44.0,54.0,28.930952282978865,23.0,0
32.0,0.0,77.0,0,-2.293307366569998,-0.4621509104905264,-9.161037823067,-0.3361382320144755,0.08138972810000666,0.21180736403089115,0.0,1.0369220273845716,1.396949144283305,0.0,0.4155844101872155,0.0,109.0,36.333333333333336,77.0,38.68246803570493,0.0,0
32.0,0.0,77.0,1,-2.293307366569998,-0.4621509104905264,-9.161037823067,-0.3361382320144755,0.08138972810000666,0.21180736403089115,0.0,1.0369220273845716,1.396949144283305,0.0,0.4155844101872155,0.0,109.0,36.333333333333336,77.0,38.68246803570493,0.0,0
32.0,23.0,77.0,0,-2.293307366569998,-0.4621509104905264,13.838962176933,0.5077813637398662,0.08138972810000666,0.21180736403089115,3.1780538303479458,1.0369220273845716,1.396949144283305,4.795831523312719,0.4155844101872155,0.7187499775390632,132.0,44.0,54.0,28.930952282978865,23.0,0
32.0,0.0,77.0,1,-2.293307366569998,-0.4621509104905264,-9.161037823067,-0.3361382320144755,0.08138972810000666,0.21180736403089115,0.0,1.0369220273845716,1.396949144283305,0.0,0.4155844101872155,0.0,109.0,36.333333333333336,77.0,38.68246803570493,0.0,0
32.0,0.0,77.0,0,-2.293307366569998,-0.4621509104905264,-9.161037823067,-0.3361382320144755,0.08138972810000666,0.21180736403089115,0.0,1.0369220273845716,1.396949144283305,0.0,0.4155844101872155,0.0,109.0,36.333333333333336,77.0,38.68246803570493,0.0,0
32.0,0.0,77.0,1,-2.293307366569998,-0.4621509104905264,-9.161037823067,-0.3361382320144755,0.08138972810000666,0.21180736403089115,0.0,1.0369220273845716,1.396949144283305,0.0,0.4155844101872155,0.0,109.0,36.333333333333336,77.0,38.68246803570493,0.0,0
32.0,0.0,77.0,1,-2.293307366569998,-0.4621509104905264,-9.161037823067,-0.3361382320144755,0.08138972810000666,0.21180736403089115,0.0,1.0369220273845716,1.396949144283305,0.0,0.4155844101872155,0.0,109.0,36.333333333333336,77.0,38.68246803570493,0.0,0
32.0,0.0,77.0,0,-2.293307366569998,-0.4621509104905264,-9.161037823067,-0.3361382320144755,0.08138972810000666,0.21180736403089115,0.0,1.0369220273845716,1.396949144283305,0.0,0.4155844101872155,0.0,109.0,36.333333333333336,77.0,38.68246803570493,0.0,0
32.0,0.0,77.0,1,-2.293307366569998,-0.4621509104905264,-9.161037823067,-0.3361382320144755,0.08138972810000666,0.21180736403089115,0.0,1.0369220273845716,1.396949144283305,0.0,0.4155844101872155,0.0,109.0,36.333333333333336,77.0,38.68246803570493,0.0,0
32.0,0.0,77.0,1,-2.293307366569998,-0.4621509104905264,-9.161037823067,-0.3361382320144755,0.08138972810000666,0.21180736403089115,0.0,1.0369220273845716,1.396949144283305,0.0,0.4155844101872155,0.0,109.0,36.333333333333336,77.0,38.68246803570493,0.0,0
32.0,0.0,77.0,0,-2.293307366569998,-0.4621509104905264,-9.161037823067,-0.3361382320144755,0.08138972810000666,0.21180736403089115,0.0,1.0369220273845716,1.396949144283305,0.0,0.4155844101872155,0.0,109.0,36.333333333333336,77.0,38.68246803570493,0.0,0
32.0,18.0,77.0,0,-2.293307366569998,-0.4621509104905264,8.838962176933,0.3243205820541397,0.08138972810000666,0.21180736403089115,2.9444389791664403,1.0369220273845716,1.396949144283305,4.242640687119285,0.4155844101872155,0.5624999824218756,127.0,42.333333333333336,59.0,30.827476921300796,18.0,0
32.0,0.0,77.0,1,-2.293307366569998,-0.4621509104905264,-9.161037823067,-0.3361382320144755,0.08138972810000666,0.21180736403089115,0.0,1.0369220273845716,1.396949144283305,0.0,0.4155844101872155,0.0,109.0,36.333333333333336,77.0,38.68246803570493,0.0,0
32.0,0.0,77.0,0,-2.293307366569998,-0.4621509104905264,-9.161037823067,-0.3361382320144755,0.08138972810000666,0.21180736403089115,0.0,1.0369220273845716,1.396949144283305,0.0,0.4155844101872155,0.0,109.0,36.333333333333336,77.0,38.68246803570493,0.0,0
32.0,0.0,77.0,1,-2.293307366569998,-0.4621509104905264,-9.161037823067,-0.3361382320144755,0.08138972810000666,0.21180736403089115,0.0,1.0369220273845716,1.396949144283305,0.0,0.4155844101872155,0.0,109.0,36.333333333333336,77.0,38.68246803570493,0.0,0
32.0,0.0,77.0,0,-2.293307366569998,-0.4621509104905264,-9.161037823067,-0.3361382320144755,0.08138972810000666,0.21180736403089115,0.0,1.0369220273845716,1.396949144283305,0.0,0.4155844101872155,0.0,109.0,36.333333333333336,77.0,38.68246803570493,0.0,0
32.0,0.0,77.0,1,-2.293307366569998,-0.4621509104905264,-9.161037823067,-0.3361382320144755,0.08138972810000666,0.21180736403089115,0.0,1.0369220273845716,1.396949144283305,0.0,0.4155844101872155,0.0,109.0,36.333333333333336,77.0,38.68246803570493,0.0,0
32.0,0.0,77.0,0,-2.293307366569998,-0.4621509104905264,-9.161037823067,-0.3361382320144755,0.08138972810000666,0.21180736403089115,0.0,1.0369220273845716,1.396949144283305,0.0,0.4155844101872155,0.0,109.0,36.333333333333336,77.0,38.68246803570493,0.0,0
32.0,0.0,77.0,1,-2.293307366569998,-0.4621509104905264,-9.161037823067,-0.3361382320144755,0.08138972810000666,0.21180736403089115,0.0,1.0369220273845716,1.396949144283305,0.0,0.4155844101872155,0.0,109.0,36.333333333333336,77.0,38.68246803570493,0.0,0
32.0,0.0,77.0,0,-2.293307366569998,-0.4621509104905264,-9.161037823067,-0.3361382320144755,0.08138972810000666,0.21180736403089115,0.0,1.0369220273845716,1.396949144283305,0.0,0.4155844101872155,0.0,109.0,36.333333333333336,77.0,38.68246803570493,0.0,0
32.0,0.0,77.0,1,-2.293307366569998,-0.4621509104905264,-9.161037823067,-0.3361382320144755,0.08138972810000666,0.21180736403089115,0.0,1.0369220273845716,1.396949144283305,0.0,0.4155844101872155,0.0,109.0,36.333333333333336,77.0,38.68246803570493,0.0,0
32.0,0.0,77.0,0,-2.293307366569998,-0.4621509104905264,-9.161037823067,-0.3361382320144755,0.08138972810000666,0.21180736403089115,0.0,1.0369220273845716,1.396949144283305,0.0,0.4155844101872155,0.0,109.0,36.333333333333336,77.0,38.68246803570493,0.0,0
32.0,0.0,77.0,1,-2.293307366569998,-0.4621509104905264,-9.161037823067,-0.3361382320144755,0.08138972810000666,0.21180736403089115,0.0,1.0369220273845716,1.396949144283305,0.0,0.4155844101872155,0.0,109.0,36.333333333333336,77.0,38.68246803570493,0.0,0
32.0,0.0,77.0,0,-2.293307366569998,-0.4621509104905264,-9.161037823067,-0.3361382320144755,0.08138972810000666,0.21180736403089115,0.0,1.0369220273845716,1.396949144283305,0.0,0.4155844101872155,0.0,109.0,36.333333333333336,77.0,38.68246803570493,0.0,0
32.0,0.0,77.0,1,-2.293307366569998,-0.4621509104905264,-9.161037823067,-0.3361382320144755,0.08138972810000666,0.21180736403089115,0.0,1.0369220273845716,1.396949144283305,0.0,0.4155844101872155,0.0,109.0,36.333333333333336,77.0,38.68246803570493,0.0,0
32.0,0.0,77.0,0,-2.293307366569998,-0.4621509104905264,-9.161037823067,-0.3361382320144755,0.08138972810000666,0.21180736403089115,0.0,1.0369220273845716,1.396949144283305,0.0,0.4155844101872155,0.0,109.0,36.333333333333336,77.0,38.68246803570493,0.0,0
32.0,0.0,77.0,1,-2.293307366569998,-0.4621509104905264,-9.161037823067,-0.3361382320144755,0.08138972810000666,0.21180736403089115,0.0,1.0369220273845716,1.396949144283305,0.0,0.4155844101872155,0.0,109.0,36.333333333333336,77.0,38.68246803570493,0.0,0
32.0,0.0,77.0,0,-2.293307366569998,-0.4621509104905264,-9.161037823067,-0.3361382320144755,0.08138972810000666,0.21180736403089115,0.0,1.0369220273845716,1.396949144283305,0.0,0.4155844101872155,0.0,109.0,36.333333333333336,77.0,38.68246803570493,0.0,0
32.0,0.0,77.0,2,-2.293307366569998,-0.4621509104905264,-9.161037823067,-0.3361382320144755,0.08138972810000666,0.21180736403089115,0.0,1.0369220273845716,1.396949144283305,0.0,0.4155844101872155,0.0,109.0,36.333333333333336,77.0,38.68246803570493,0.0,0
32.0,0.0,77.0,0,-2.293307366569998,-0.4621509104905264,-9.161037823067,-0.3361382320144755,0.08138972810000666,0.21180736403089115,0.0,1.0369220273845716,1.396949144283305,0.0,0.4155844101872155,0.0,109.0,36.333333333333336,77.0,38.68246803570493,0.0,0
32.0,0.0,77.0,2,-2.293307366569998,-0.4621509104905264,-9.161037823067,-0.3361382320144755,0.08138972810000666,0.21180736403089115,0.0,1.0369220273845716,1.396949144283305,0.0,0.4155844101872155,0.0,109.0,36.333333333333336,77.0,38.68246803570493,0.0,0
32.0,0.0,77.0,0,-2.293307366569998,-0.4621509104905264,-9.161037823067,-0.3361382320144755,0.08138972810000666,0.21180736403089115,0.0,1.0369220273845716,1.396949144283305,0.0,0.4155844101872155,0.0,109.0,36.333333333333336,77.0,38.68246803570493,0.0,0
32.0,0.0,77.0,2,-2.293307366569998,-0.4621509104905264,-9.161037823067,-0.3361382320144755,0.08138972810000666,0.21180736403089115,0.0,1.0369220273845716,1.396949144283305,0.0,0.4155844101872155,0.0,109.0,36.333333333333336,77.0,38.68246803570493,0.0,0
32.0,0.0,77.0,0,-2.293307366569998,-0.4621509104905264,-9.161037823067,-0.3361382320144755,0.08138972810000666,0.21180736403089115,0.0,1.0369220273845716,1.396949144283305,0.0,0.4155844101872155,0.0,109.0,36.333333333333336,77.0,38.68246803570493,0.0,0
32.0,0.0,77.0,2,-2.293307366569998,-0.4621509104905264,-9.161037823067,-0.3361382320144755,0.08138972810000666,0.21180736403089115,0.0,1.0369220273845716,1.396949144283305,0.0,0.4155844101872155,0.0,109.0,36.333333333333336,77.0,38.68246803570493,0.0,0
32.0,0.0,77.0,0,-2.293307366569998,-0.4621509104905264,-9.161037823067,-0.3361382320144755,0.08138972810000666,0.21180736403089115,0.0,1.0369220273845716,1.396949144283305,0.0,0.4155844101872155,0.0,109.0,36.333333333333336,77.0,38.68246803570493,0.0,0
32.0,0.0,77.0,1,-2.293307366569998,-0.4621509104905264,-9.161037823067,-0.3361382320144755,0.08138972810000666,0.21180736403089115,0.0,1.0369220273845716,1.396949144283305,0.0,0.4155844101872155,0.0,109.0,36.333333333333336,77.0,38.68246803570493,0.0,0
32.0,0.0,77.0,2,-2.293307366569998,-0.4621509104905264,-9.161037823067,-0.3361382320144755,0.08138972810000666,0.21180736403089115,0.0,1.0369220273845716,1.396949144283305,0.0,0.4155844101872155,0.0,109.0,36.333333333333336,77.0,38.68246803570493,0.0,0
32.0,0.0,77.0,1,-2.293307366569998,-0.4621509104905264,-9.161037823067,-0.3361382320144755,0.08138972810000666,0.21180736403089115,0.0,1.0369220273845716,1.396949144283305,0.0,0.4155844101872155,0.0,109.0,36.333333333333336,77.0,38.68246803570493,0.0,0
45.0,0.0,77.0,0,10.706692633430002,2.157629553286859,-9.161037823067,-0.3361382320144755,0.08138972810000666,0.21180736403089115,0.0,2.761307967483833,1.396949144283305,0.0,0.5844155768257717,0.0,122.0,40.666666666666664,77.0,38.68246803570493,0.0,0
45.0,0.0,77.0,2,10.706692633430002,2.157629553286859,-9.161037823067,-0.3361382320144755,0.08138972810000666,0.21180736403089115,0.0,2.761307967483833,1.396949144283305,0.0,0.5844155768257717,0.0,122.0,40.666666666666664,77.0,38.68246803570493,0.0,0
45.0,0.0,77.0,0,10.706692633430002,2.157629553286859,-9.161037823067,-0.3361382320144755,0.08138972810000666,0.21180736403089115,0.0,2.761307967483833,1.396949144283305,0.0,0.5844155768257717,0.0,122.0,40.666666666666664,77.0,38.68246803570493,0.0,0
44.0,0.0,77.0,1,9.706692633430002,1.956107979150137,-9.161037823067,-0.3361382320144755,0.08138972810000666,0.21180736403089115,0.0,2.696012852040803,1.396949144283305,0.0,0.5714285640074213,0.0,121.0,40.333333333333336,77.0,38.630730427126714,0.0,0
44.0,0.0,77.0,0,9.706692633430002,1.956107979150137,-9.161037823067,-0.3361382320144755,0.08138972810000666,0.21180736403089115,0.0,2.696012852040803,1.396949144283305,0.0,0.5714285640074213,0.0,121.0,40.333333333333336,77.0,38.630730427126714,0.0,0
44.0,0.0,77.0,1,9.706692633430002,1.956107979150137,-9.161037823067,-0.3361382320144755,0.08138972810000666,0.21180736403089115,0.0,2.696012852040803,1.396949144283305,0.0,0.5714285640074213,0.0,121.0,40.333333333333336,77.0,38.630730427126714,0.0,0
42.0,0.0,77.0,0,7.706692633430002,1.5530648308766932,-9.161037823067,-0.3361382320144755,0.08138972810000666,0.21180736403089115,0.0,2.5510471799922803,1.396949144283305,0.0,0.5454545383707203,0.0,119.0,39.666666666666664,77.0,38.552993831002716,0.0,0
42.0,0.0,77.0,1,7.706692633430002,1.5530648308766932,-9.161037823067,-0.3361382320144755,0.08138972810000666,0.21180736403089115,0.0,2.5510471799922803,1.396949144283305,0.0,0.5454545383707203,0.0,119.0,39.666666666666664,77.0,38.552993831002716,0.0,0
40.0,0.0,77.0,0,5.706692633430002,1.1500216826032492,-9.161037823067,-0.3361382320144755,0.08138972810000666,0.21180736403089115,0.0,2.381444530109785,1.396949144283305,0.0,0.5194805127340193,0.0,117.0,39.0,77.0,38.50973902793941,0.0,0
40.0,0.0,77.0,1,5.706692633430002,1.1500216826032492,-9.161037823067,-0.3361382320144755,0.08138972810000666,0.21180736403089115,0.0,2.381444530109785,1.396949144283305,0.0,0.5194805127340193,0.0,117.0,39.0,77.0,38.50973902793941,0.0,0
32.0,0.0,77.0,0,-2.293307366569998,-0.4621509104905264,-9.161037823067,-0.3361382320144755,0.08138972810000666,0.21180736403089115,0.0,1.0369220273845716,1.396949144283305,0.0,0.4155844101872155,0.0,109.0,36.333333333333336,77.0,38.68246803570493,0.0,0
32.0,0.0,77.0,2,-2.293307366569998,-0.4621509104905264,-9.161037823067,-0.3361382320144755,0.08138972810000666,0.21180736403089115,0.0,1.0369220273845716,1.396949144283305,0.0,0.4155844101872155,0.0,109.0,36.333333333333336,77.0,38.68246803570493,0.0,0
32.0,0.0,77.0,0,-2.293307366569998,-0.4621509104905264,-9.161037823067,-0.3361382320144755,0.08138972810000666,0.21180736403089115,0.0,1.0369220273845716,1.396949144283305,0.0,0.4155844101872155,0.0,109.0,36.333333333333336,77.0,38.68246803570493,0.0,0
32.0,0.0,77.0,1,-2.293307366569998,-0.4621509104905264,-9.161037823067,-0.3361382320144755,0.08138972810000666,0.21180736403089115,0.0,1.0369220273845716,1.396949144283305,0.0,0.4155844101872155,0.0,109.0,36.333333333333336,77.0,38.68246803570493,0.0,0
32.0,0.0,77.0,0,-2.293307366569998,-0.4621509104905264,-9.161037823067,-0.3361382320144755,0.08138972810000666,0.21180736403089115,0.0,1.0369220273845716,1.396949144283305,0.0,0.4155844101872155,0.0,109.0,36.333333333333336,77.0,38.68246803570493,0.0,0
32.0,0.0,77.0,2,-2.293307366569998,-0.4621509104905264,-9.161037823067,-0.3361382320144755,0.08138972810000666,0.21180736403089115,0.0,1.0369220273845716,1.396949144283305,0.0,0.4155844101872155,0.0,109.0,36.333333333333336,77.0,38.68246803570493,0.0,0
32.0,0.0,77.0,0,-2.293307366569998,-0.4621509104905264,-9.161037823067,-0.3361382320144755,0.08138972810000666,0.21180736403089115,0.0,1.0369220273845716,1.396949144283305,0.0,0.4155844101872155,0.0,109.0,36.333333333333336,77.0,38.68246803570493,0.0,0
32.0,0.0,77.0,1,-2.293307366569998,-0.4621509104905264,-9.161037823067,-0.3361382320144755,0.08138972810000666,0.21180736403089115,0.0,1.0369220273845716,1.396949144283305,0.0,0.4155844101872155,0.0,109.0,36.333333333333336,77.0,38.68246803570493,0.0,0
32.0,0.0,77.0,0,-2.293307366569998,-0.4621509104905264,-9.161037823067,-0.3361382320144755,0.08138972810000666,0.21180736403089115,0.0,1.0369220273845716,1.396949144283305,0.0,0.4155844101872155,0.0,109.0,36.333333333333336,77.0,38.68246803570493,0.0,0
32.0,0.0,77.0,1,-2.293307366569998,-0.4621509104905264,-9.161037823067,-0.3361382320144755,0.08138972810000666,0.21180736403089115,0.0,1.0369220273845716,1.396949144283305,0.0,0.4155844101872155,0.0,109.0,36.333333333333336,77.0,38.68246803570493,0.0,0
32.0,0.0,77.0,0,-2.293307366569998,-0.4621509104905264,-9.161037823067,-0.3361382320144755,0.08138972810000666,0.21180736403089115,0.0,1.0369220273845716,1.396949144283305,0.0,0.4155844101872155,0.0,109.0,36.333333333333336,77.0,38.68246803570493,0.0,0
32.0,0.0,77.0,1,-2.293307366569998,-0.4621509104905264,-9.161037823067,-0.3361382320144755,0.08138972810000666,0.21180736403089115,0.0,1.0369220273845716,1.396949144283305,0.0,0.4155844101872155,0.0,109.0,36.333333333333336,77.0,38.68246803570493,0.0,0
32.0,91.0,77.0,0,-2.293307366569998,-0.4621509104905264,81.838962176933,3.0028479946657454,0.08138972810000666,0.21180736403089115,4.5217885770490405,1.0369220273845716,1.396949144283305,9.539392014169456,0.4155844101872155,2.8437499111328157,200.0,66.66666666666667,59.0,30.827476921300796,91.0,0
32.0,0.0,77.0,2,-2.293307366569998,-0.4621509104905264,-9.161037823067,-0.3361382320144755,0.08138972810000666,0.21180736403089115,0.0,1.0369220273845716,1.396949144283305,0.0,0.4155844101872155,0.0,109.0,36.333333333333336,77.0,38.68246803570493,0.0,0
32.0,0.0,77.0,0,-2.293307366569998,-0.4621509104905264,-9.161037823067,-0.3361382320144755,0.08138972810000666,0.21180736403089115,0.0,1.0369220273845716,1.396949144283305,0.0,0.4155844101872155,0.0,109.0,36.333333333333336,77.0,38.68246803570493,0.0,0
32.0,0.0,77.0,2,-2.293307366569998,-0.4621509104905264,-9.161037823067,-0.3361382320144755,0.08138972810000666,0.21180736403089115,0.0,1.0369220273845716,1.396949144283305,0.0,0.4155844101872155,0.0,109.0,36.333333333333336,77.0,38.68246803570493,0.0,0
32.0,0.0,77.0,0,-2.293307366569998,-0.4621509104905264,-9.161037823067,-0.3361382320144755,0.08138972810000666,0.21180736403089115,0.0,1.0369220273845716,1.396949144283305,0.0,0.4155844101872155,0.0,109.0,36.333333333333336,77.0,38.68246803570493,0.0,0
32.0,0.0,77.0,1,-2.293307366569998,-0.4621509104905264,-9.161037823067,-0.3361382320144755,0.08138972810000666,0.21180736403089115,0.0,1.0369220273845716,1.396949144283305,0.0,0.4155844101872155,0.0,109.0,36.333333333333336,77.0,38.68246803570493,0.0,0
32.0,90.0,77.0,2,-2.293307366569998,-0.4621509104905264,80.838962176933,2.9661558383286004,0.08138972810000666,0.21180736403089115,4.51085950651685,1.0369220273845716,1.396949144283305,9.486832980505138,0.4155844101872155,2.812499912109378,199.0,66.33333333333333,58.0,30.43572462310259,90.0,0
32.0,0.0,77.0,1,-2.293307366569998,-0.4621509104905264,-9.161037823067,-0.3361382320144755,0.08138972810000666,0.21180736403089115,0.0,1.0369220273845716,1.396949144283305,0.0,0.4155844101872155,0.0,109.0,36.333333333333336,77.0,38.68246803570493,0.0,0
32.0,0.0,77.0,0,-2.293307366569998,-0.4621509104905264,-9.161037823067,-0.3361382320144755,0.08138972810000666,0.21180736403089115,0.0,1.0369220273845716,1.396949144283305,0.0,0.4155844101872155,0.0,109.0,36.333333333333336,77.0,38.68246803570493,0.0,0
32.0,0.0,77.0,2,-2.293307366569998,-0.4621509104905264,-9.161037823067,-0.3361382320144755,0.08138972810000666,0.21180736403089115,0.0,1.0369220273845716,1.396949144283305,0.0,0.4155844101872155,0.0,109.0,36.333333333333336,77.0,38.68246803570493,0.0,0
32.0,0.0,77.0,0,-2.293307366569998,-0.4621509104905264,-9.161037823067,-0.3361382320144755,0.08138972810000666,0.21180736403089115,0.0,1.0369220273845716,1.396949144283305,0.0,0.4155844101872155,0.0,109.0,36.333333333333336,77.0,38.68246803570493,0.0,0
32.0,0.0,77.0,1,-2.293307366569998,-0.4621509104905264,-9.161037823067,-0.3361382320144755,0.08138972810000666,0.21180736403089115,0.0,1.0369220273845716,1.396949144283305,0.0,0.4155844101872155,0.0,109.0,36.333333333333336,77.0,38.68246803570493,0.0,0
32.0,17.0,77.0,1,-2.293307366569998,-0.4621509104905264,7.838962176933,0.28762842571699443,0.08138972810000666,0.21180736403089115,2.8903717578961645,1.0369220273845716,1.396949144283305,4.123105625617661,0.4155844101872155,0.5312499833984381,126.0,42.0,60.0,31.22498999199199,17.0,0
32.0,0.0,76.0,0,-2.293307366569998,-0.4621509104905264,-9.161037823067,-0.3361382320144755,-0.9186102718999933,-2.3905771011271124,0.0,1.0369220273845716,1.1127935870347816,0.0,0.42105262603878124,0.0,108.0,36.0,76.0,38.157568056677825,0.0,0
32.0,0.0,76.0,0,-2.293307366569998,-0.4621509104905264,-9.161037823067,-0.3361382320144755,-0.9186102718999933,-2.3905771011271124,0.0,1.0369220273845716,1.1127935870347816,0.0,0.42105262603878124,0.0,108.0,36.0,76.0,38.157568056677825,0.0,0
32.0,0.0,76.0,1,-2.293307366569998,-0.4621509104905264,-9.161037823067,-0.3361382320144755,-0.9186102718999933,-2.3905771011271124,0.0,1.0369220273845716,1.1127935870347816,0.0,0.42105262603878124,0.0,108.0,36.0,76.0,38.157568056677825,0.0,0
32.0,0.0,76.0,0,-2.293307366569998,-0.4621509104905264,-9.161037823067,-0.3361382320144755,-0.9186102718999933,-2.3905771011271124,0.0,1.0369220273845716,1.1127935870347816,0.0,0.42105262603878124,0.0,108.0,36.0,76.0,38.157568056677825,0.0,0
32.0,0.0,76.0,0,-2.293307366569998,-0.4621509104905264,-9.161037823067,-0.3361382320144755,-0.9186102718999933,-2.3905771011271124,0.0,1.0369220273845716,1.1127935870347816,0.0,0.42105262603878124,0.0,108.0,36.0,76.0,38.157568056677825,0.0,0
32.0,0.0,77.0,0,-2.293307366569998,-0.4621509104905264,-9.161037823067,-0.3361382320144755,0.08138972810000666,0.21180736403089115,0.0,1.0369220273845716,1.396949144283305,0.0,0.4155844101872155,0.0,109.0,36.333333333333336,77.0,38.68246803570493,0.0,0
32.0,0.0,77.0,0,-2.293307366569998,-0.4621509104905264,-9.161037823067,-0.3361382320144755,0.08138972810000666,0.21180736403089115,0.0,1.0369220273845716,1.396949144283305,0.0,0.4155844101872155,0.0,109.0,36.333333333333336,77.0,38.68246803570493,0.0,0
32.0,0.0,77.0,0,-2.293307366569998,-0.4621509104905264,-9.161037823067,-0.3361382320144755,0.08138972810000666,0.21180736403089115,0.0,1.0369220273845716,1.396949144283305,0.0,0.4155844101872155,0.0,109.0,36.333333333333336,77.0,38.68246803570493,0.0,0
32.0,0.0,77.0,0,-2.293307366569998,-0.4621509104905264,-9.161037823067,-0.3361382320144755,0.08138972810000666,0.21180736403089115,0.0,1.0369220273845716,1.396949144283305,0.0,0.4155844101872155,0.0,109.0,36.333333333333336,77.0,38.68246803570493,0.0,0
32.0,53.0,77.0,0,-2.293307366569998,-0.4621509104905264,43.838962176933,1.6085460538542249,0.08138972810000666,0.21180736403089115,3.9889840465642745,1.0369220273845716,1.396949144283305,7.280109889280518,0.4155844101872155,1.6562499482421893,162.0,54.0,45.0,22.516660498395403,53.0,0
32.0,0.0,77.0,0,-2.293307366569998,-0.4621509104905264,-9.161037823067,-0.3361382320144755,0.08138972810000666,0.21180736403089115,0.0,1.0369220273845716,1.396949144283305,0.0,0.4155844101872155,0.0,109.0,36.333333333333336,77.0,38.68246803570493,0.0,0
32.0,50.0,77.0,0,-2.293307366569998,-0.4621509104905264,40.838962176933,1.498469584842789,0.08138972810000666,0.21180736403089115,3.9318256327243257,1.0369220273845716,1.396949144283305,7.0710678118654755,0.4155844101872155,1.5624999511718767,159.0,53.0,45.0,22.64950330581225,50.0,0
32.0,0.0,77.0,0,-2.293307366569998,-0.4621509104905264,-9.161037823067,-0.3361382320144755,0.08138972810000666,0.21180736403089115,0.0,1.0369220273845716,1.396949144283305,0.0,0.4155844101872155,0.0,109.0,36.333333333333336,77.0,38.68246803570493,0.0,0
32.0,0.0,77.0,0,-2.293307366569998,-0.4621509104905264,-9.161037823067,-0.3361382320144755,0.08138972810000666,0.21180736403089115,0.0,1.0369220273845716,1.396949144283305,0.0,0.4155844101872155,0.0,109.0,36.333333333333336,77.0,38.68246803570493,0.0,0
32.0,0.0,77.0,1,-2.293307366569998,-0.4621509104905264,-9.161037823067,-0.3361382320144755,0.08138972810000666,0.21180736403089115,0.0,1.0369220273845716,1.396949144283305,0.0,0.4155844101872155,0.0,109.0,36.333333333333336,77.0,38.68246803570493,0.0,0
32.0,0.0,77.0,0,-2.293307366569998,-0.4621509104905264,-9.161037823067,-0.3361382320144755,0.08138972810000666,0.21180736403089115,0.0,1.0369220273845716,1.396949144283305,0.0,0.4155844101872155,0.0,109.0,36.333333333333336,77.0,38.68246803570493,0.0,0
32.0,0.0,77.0,0,-2.293307366569998,-0.4621509104905264,-9.161037823067,-0.3361382320144755,0.08138972810000666,0.21180736403089115,0.0,1.0369220273845716,1.396949144283305,0.0,0.4155844101872155,0.0,109.0,36.333333333333336,77.0,38.68246803570493,0.0,0
45.0,0.0,77.0,0,10.706692633430002,2.157629553286859,-9.161037823067,-0.3361382320144755,0.08138972810000666,0.21180736403089115,0.0,2.761307967483833,1.396949144283305,0.0,0.5844155768257717,0.0,122.0,40.666666666666664,77.0,38.68246803570493,0.0,0
45.0,0.0,77.0,0,10.706692633430002,2.157629553286859,-9.161037823067,-0.3361382320144755,0.08138972810000666,0.21180736403089115,0.0,2.761307967483833,1.396949144283305,0.0,0.5844155768257717,0.0,122.0,40.666666666666664,77.0,38.68246803570493,0.0,0
46.0,0.0,77.0,0,11.706692633430002,2.3591511274235812,-9.161037823067,-0.3361382320144755,0.08138972810000666,0.21180736403089115,0.0,2.822599697463679,1.396949144283305,0.0,0.5974025896441222,0.0,123.0,41.0,77.0,38.742741255621034,0.0,0
46.0,0.0,75.0,1,11.706692633430002,2.3591511274235812,-9.161037823067,-0.3361382320144755,-1.9186102718999933,-4.992961566285116,0.0,2.822599697463679,0.7143444182681287,0.0,0.6133333251555557,0.0,121.0,40.333333333333336,75.0,37.81974792794544,0.0,0
46.0,0.0,75.0,2,11.706692633430002,2.3591511274235812,-9.161037823067,-0.3361382320144755,-1.9186102718999933,-4.992961566285116,0.0,2.822599697463679,0.7143444182681287,0.0,0.6133333251555557,0.0,121.0,40.333333333333336,75.0,37.81974792794544,0.0,0
47.0,0.0,75.0,2,12.706692633430002,2.560672701560303,-9.161037823067,-0.3361382320144755,-1.9186102718999933,-4.992961566285116,0.0,2.8803507229601886,0.7143444182681287,0.0,0.6266666583111112,0.0,122.0,40.666666666666664,75.0,37.89898855290644,0.0,0
47.0,0.0,75.0,2,12.706692633430002,2.560672701560303,-9.161037823067,-0.3361382320144755,-1.9186102718999933,-4.992961566285116,0.0,2.8803507229601886,0.7143444182681287,0.0,0.6266666583111112,0.0,122.0,40.666666666666664,75.0,37.89898855290644,0.0,0
47.0,0.0,76.0,2,12.706692633430002,2.560672701560303,-9.161037823067,-0.3361382320144755,-0.9186102718999933,-2.3905771011271124,0.0,2.8803507229601886,1.1127935870347816,0.0,0.61842104449446,0.0,123.0,41.0,76.0,38.353617821530214,0.0,0
48.0,0.0,76.0,2,13.706692633430002,2.762194275697025,-9.161037823067,-0.3361382320144755,-0.9186102718999933,-2.3905771011271124,0.0,2.934947878193193,1.1127935870347816,0.0,0.6315789390581719,0.0,124.0,41.333333333333336,76.0,38.4360941477322,0.0,0
48.0,0.0,76.0,2,13.706692633430002,2.762194275697025,-9.161037823067,-0.3361382320144755,-0.9186102718999933,-2.3905771011271124,0.0,2.934947878193193,1.1127935870347816,0.0,0.6315789390581719,0.0,124.0,41.333333333333336,76.0,38.4360941477322,0.0,0
46.0,0.0,77.0,2,11.706692633430002,2.3591511274235812,-9.161037823067,-0.3361382320144755,0.08138972810000666,0.21180736403089115,0.0,2.822599697463679,1.396949144283305,0.0,0.5974025896441222,0.0,123.0,41.0,77.0,38.742741255621034,0.0,0
32.0,0.0,77.0,2,-2.293307366569998,-0.4621509104905264,-9.161037823067,-0.3361382320144755,0.08138972810000666,0.21180736403089115,0.0,1.0369220273845716,1.396949144283305,0.0,0.4155844101872155,0.0,109.0,36.333333333333336,77.0,38.68246803570493,0.0,0
32.0,0.0,77.0,2,-2.293307366569998,-0.4621509104905264,-9.161037823067,-0.3361382320144755,0.08138972810000666,0.21180736403089115,0.0,1.0369220273845716,1.396949144283305,0.0,0.4155844101872155,0.0,109.0,36.333333333333336,77.0,38.68246803570493,0.0,0
32.0,0.0,77.0,2,-2.293307366569998,-0.4621509104905264,-9.161037823067,-0.3361382320144755,0.08138972810000666,0.21180736403089115,0.0,1.0369220273845716,1.396949144283305,0.0,0.4155844101872155,0.0,109.0,36.333333333333336,77.0,38.68246803570493,0.0,0
32.0,92.0,77.0,2,-2.293307366569998,-0.4621509104905264,82.838962176933,3.0395401510028908,0.08138972810000666,0.21180736403089115,4.532599493153256,1.0369220273845716,1.396949144283305,9.591663046625438,0.4155844101872155,2.874999910156253,201.0,67.0,60.0,31.22498999199199,92.0,0
32.0,0.0,77.0,2,-2.293307366569998,-0.4621509104905264,-9.161037823067,-0.3361382320144755,0.08138972810000666,0.21180736403089115,0.0,1.0369220273845716,1.396949144283305,0.0,0.4155844101872155,0.0,109.0,36.333333333333336,77.0,38.68246803570493,0.0,0
32.0,89.0,77.0,2,-2.293307366569998,-0.4621509104905264,79.838962176933,2.929463681991455,0.08138972810000666,0.21180736403089115,4.499809670330265,1.0369220273845716,1.396949144283305,9.433981132056603,0.4155844101872155,2.7812499130859405,198.0,66.0,57.0,30.04995840263344,89.0,0
32.0,91.0,77.0,2,-2.293307366569998,-0.4621509104905264,81.838962176933,3.0028479946657454,0.08138972810000666,0.21180736403089115,4.5217885770490405,1.0369220273845716,1.396949144283305,9.539392014169456,0.4155844101872155,2.8437499111328157,200.0,66.66666666666667,59.0,30.827476921300796,91.0,0
32.0,0.0,77.0,2,-2.293307366569998,-0.4621509104905264,-9.161037823067,-0.3361382320144755,0.08138972810000666,0.21180736403089115,0.0,1.0369220273845716,1.396949144283305,0.0,0.4155844101872155,0.0,109.0,36.333333333333336,77.0,38.68246803570493,0.0,0
32.0,0.0,77.0,2,-2.293307366569998,-0.4621509104905264,-9.161037823067,-0.3361382320144755,0.08138972810000666,0.21180736403089115,0.0,1.0369220273845716,1.396949144283305,0.0,0.4155844101872155,0.0,109.0,36.333333333333336,77.0,38.68246803570493,0.0,0
32.0,0.0,77.0,1,-2.293307366569998,-0.4621509104905264,-9.161037823067,-0.3361382320144755,0.08138972810000666,0.21180736403089115,0.0,1.0369220273845716,1.396949144283305,0.0,0.4155844101872155,0.0,109.0,36.333333333333336,77.0,38.68246803570493,0.0,0
32.0,124.0,77.0,1,-2.293307366569998,-0.4621509104905264,114.838962176933,4.21368915379154,0.08138972810000666,0.21180736403089115,4.8283137373023015,1.0369220273845716,1.396949144283305,11.135528725660043,0.4155844101872155,3.8749998789062543,233.0,77.66666666666667,92.0,46.00362304572688,124.0,0
32.0,120.0,77.0,1,-2.293307366569998,-0.4621509104905264,110.838962176933,4.066920528442959,0.08138972810000666,0.21180736403089115,4.795790545596741,1.0369220273845716,1.396949144283305,10.954451150103322,0.4155844101872155,3.749999882812504,229.0,76.33333333333333,88.0,44.00378771575617,120.0,0
32.0,0.0,77.0,1,-2.293307366569998,-0.4621509104905264,-9.161037823067,-0.3361382320144755,0.08138972810000666,0.21180736403089115,0.0,1.0369220273845716,1.396949144283305,0.0,0.4155844101872155,0.0,109.0,36.333333333333336,77.0,38.68246803570493,0.0,0
32.0,0.0,77.0,1,-2.293307366569998,-0.4621509104905264,-9.161037823067,-0.3361382320144755,0.08138972810000666,0.21180736403089115,0.0,1.0369220273845716,1.396949144283305,0.0,0.4155844101872155,0.0,109.0,36.333333333333336,77.0,38.68246803570493,0.0,0
32.0,0.0,77.0,1,-2.293307366569998,-0.4621509104905264,-9.161037823067,-0.3361382320144755,0.08138972810000666,0.21180736403089115,0.0,1.0369220273845716,1.396949144283305,0.0,0.4155844101872155,0.0,109.0,36.333333333333336,77.0,38.68246803570493,0.0,0
32.0,0.0,77.0,1,-2.293307366569998,-0.4621509104905264,-9.161037823067,-0.3361382320144755,0.08138972810000666,0.21180736403089115,0.0,1.0369220273845716,1.396949144283305,0.0,0.4155844101872155,0.0,109.0,36.333333333333336,77.0,38.68246803570493,0.0,0
32.0,0.0,77.0,1,-2.293307366569998,-0.4621509104905264,-9.161037823067,-0.3361382320144755,0.08138972810000666,0.21180736403089115,0.0,1.0369220273845716,1.396949144283305,0.0,0.4155844101872155,0.0,109.0,36.333333333333336,77.0,38.68246803570493,0.0,0
35.0,0.0,77.0,1,0.7066926334300021,0.14241381191963945,-9.161037823067,-0.3361382320144755,0.08138972810000666,0.21180736403089115,0.0,1.7613899742139076,1.396949144283305,0.0,0.4545454486422669,0.0,112.0,37.333333333333336,77.0,38.552993831002716,0.0,0
35.0,0.0,77.0,1,0.7066926334300021,0.14241381191963945,-9.161037823067,-0.3361382320144755,0.08138972810000666,0.21180736403089115,0.0,1.7613899742139076,1.396949144283305,0.0,0.4545454486422669,0.0,112.0,37.333333333333336,77.0,38.552993831002716,0.0,0
34.0,0.0,77.0,1,-0.2933073665699979,-0.05910776221708251,-9.161037823067,-0.3361382320144755,0.08138972810000666,0.21180736403089115,0.0,1.5728822520707701,1.396949144283305,0.0,0.4415584358239164,0.0,111.0,37.0,77.0,38.58756276314948,0.0,0
34.0,138.0,77.0,1,-0.2933073665699979,-0.05910776221708251,128.838962176933,4.727379342511574,0.08138972810000666,0.21180736403089115,4.9344739331306915,1.5728822520707701,1.396949144283305,11.74734012447073,0.4415584358239164,4.058823410034606,249.0,83.0,104.0,52.25897052181568,124.384680729,1
34.0,0.0,77.0,1,-0.2933073665699979,-0.05910776221708251,-9.161037823067,-0.3361382320144755,0.08138972810000666,0.21180736403089115,0.0,1.5728822520707701,1.396949144283305,0.0,0.4415584358239164,0.0,111.0,37.0,77.0,38.58756276314948,0.0,0
32.0,0.0,77.0,1,-2.293307366569998,-0.4621509104905264,-9.161037823067,-0.3361382320144755,0.08138972810000666,0.21180736403089115,0.0,1.0369220273845716,1.396949144283305,0.0,0.4155844101872155,0.0,109.0,36.333333333333336,77.0,38.68246803570493,0.0,0
32.0,78.0,77.0,1,-2.293307366569998,-0.4621509104905264,68.838962176933,2.525849962282857,0.08138972810000666,0.21180736403089115,4.3694478524670215,1.0369220273845716,1.396949144283305,8.831760866327848,0.4155844101872155,2.4374999238281276,187.0,62.333333333333336,46.0,26.27419519858474,78.0,0
32.0,0.0,77.0,1,-2.293307366569998,-0.4621509104905264,-9.161037823067,-0.3361382320144755,0.08138972810000666,0.21180736403089115,0.0,1.0369220273845716,1.396949144283305,0.0,0.4155844101872155,0.0,109.0,36.333333333333336,77.0,38.68246803570493,0.0,0
32.0,0.0,77.0,1,-2.293307366569998,-0.4621509104905264,-9.161037823067,-0.3361382320144755,0.08138972810000666,0.21180736403089115,0.0,1.0369220273845716,1.396949144283305,0.0,0.4155844101872155,0.0,109.0,36.333333333333336,77.0,38.68246803570493,0.0,0
32.0,0.0,77.0,0,-2.293307366569998,-0.4621509104905264,-9.161037823067,-0.3361382320144755,0.08138972810000666,0.21180736403089115,0.0,1.0369220273845716,1.396949144283305,0.0,0.4155844101872155,0.0,109.0,36.333333333333336,77.0,38.68246803570493,0.0,0
46.0,0.0,77.0,0,11.706692633430002,2.3591511274235812,-9.161037823067,-0.3361382320144755,0.08138972810000666,0.21180736403089115,0.0,2.822599697463679,1.396949144283305,0.0,0.5974025896441222,0.0,123.0,41.0,77.0,38.742741255621034,0.0,0
46.0,0.0,78.0,0,11.706692633430002,2.3591511274235812,-9.161037823067,-0.3361382320144755,1.0813897281000067,2.8141918291888945,0.0,2.822599697463679,1.6179708015674636,0.0,0.5897435821827746,0.0,124.0,41.333333333333336,78.0,39.20884254008697,0.0,0
46.0,0.0,78.0,0,11.706692633430002,2.3591511274235812,-9.161037823067,-0.3361382320144755,1.0813897281000067,2.8141918291888945,0.0,2.822599697463679,1.6179708015674636,0.0,0.5897435821827746,0.0,124.0,41.333333333333336,78.0,39.20884254008697,0.0,0
47.0,0.0,78.0,0,12.706692633430002,2.560672701560303,-9.161037823067,-0.3361382320144755,1.0813897281000067,2.8141918291888945,0.0,2.8803507229601886,1.6179708015674636,0.0,0.6025640948389219,0.0,125.0,41.666666666666664,78.0,39.272551907577046,0.0,0
47.0,89.0,77.0,2,12.706692633430002,2.560672701560303,79.838962176933,2.929463681991455,0.08138972810000666,0.21180736403089115,4.499809670330265,2.8803507229601886,1.396949144283305,9.433981132056603,0.6103896024624728,1.8936169809868728,213.0,71.0,42.0,21.633307652783937,89.0,0
32.0,73.0,77.0,2,-2.293307366569998,-0.4621509104905264,63.838962176933,2.342389180597131,0.08138972810000666,0.21180736403089115,4.30406509320417,1.0369220273845716,1.396949144283305,8.54400374531753,0.4155844101872155,2.28124992871094,182.0,60.666666666666664,45.0,24.90649179096352,73.0,0
32.0,97.0,77.0,2,-2.293307366569998,-0.4621509104905264,87.838962176933,3.2230009326886173,0.08138972810000666,0.21180736403089115,4.584967478670572,1.0369220273845716,1.396949144283305,9.848857801796104,0.4155844101872155,3.0312499052734405,206.0,68.66666666666667,65.0,33.291640592396966,97.0,0
32.0,0.0,77.0,2,-2.293307366569998,-0.4621509104905264,-9.161037823067,-0.3361382320144755,0.08138972810000666,0.21180736403089115,0.0,1.0369220273845716,1.396949144283305,0.0,0.4155844101872155,0.0,109.0,36.333333333333336,77.0,38.68246803570493,0.0,0
32.0,0.0,77.0,2,-2.293307366569998,-0.4621509104905264,-9.161037823067,-0.3361382320144755,0.08138972810000666,0.21180736403089115,0.0,1.0369220273845716,1.396949144283305,0.0,0.4155844101872155,0.0,109.0,36.333333333333336,77.0,38.68246803570493,0.0,0
32.0,0.0,77.0,2,-2.293307366569998,-0.4621509104905264,-9.161037823067,-0.3361382320144755,0.08138972810000666,0.21180736403089115,0.0,1.0369220273845716,1.396949144283305,0.0,0.4155844101872155,0.0,109.0,36.333333333333336,77.0,38.68246803570493,0.0,0
32.0,0.0,77.0,1,-2.293307366569998,-0.4621509104905264,-9.161037823067,-0.3361382320144755,0.08138972810000666,0.21180736403089115,0.0,1.0369220273845716,1.396949144283305,0.0,0.4155844101872155,0.0,109.0,36.333333333333336,77.0,38.68246803570493,0.0,0
32.0,0.0,77.0,2,-2.293307366569998,-0.4621509104905264,-9.161037823067,-0.3361382320144755,0.08138972810000666,0.21180736403089115,0.0,1.0369220273845716,1.396949144283305,0.0,0.4155844101872155,0.0,109.0,36.333333333333336,77.0,38.68246803570493,0.0,0
32.0,0.0,77.0,1,-2.293307366569998,-0.4621509104905264,-9.161037823067,-0.3361382320144755,0.08138972810000666,0.21180736403089115,0.0,1.0369220273845716,1.396949144283305,0.0,0.4155844101872155,0.0,109.0,36.333333333333336,77.0,38.68246803570493,0.0,0
45.22365795,1.535412017,77.00741875,0,10.930350583430005,2.202701455439052,-7.625625806066999,-0.2798006542447799,0.08880847810000603,0.23111380378178045,0.9303561551973026,2.775346173225007,1.398782493780705,1.2391174347090754,0.5872636441633275,0.03395152123134433,123.766488717,41.255496239,75.472006733,37.89215856348097,1.535412017,0
32.11642496,71.92197755,76.96183602,0,-2.1768824065699945,-0.4386887692825209,62.760939726932996,2.302834212326778,0.04322574810001356,0.11249001535030838,4.2893900688887046,1.0773706438827308,1.387464428823617,8.480682611087389,0.41730325319098005,2.23941411287721,181.00023853,60.33341284333333,44.84541106,24.56621353109882,71.92197755,0
45.91711711,0.726937185,76.98365163,0,11.623809743430002,2.34244843696178,-8.434100638067,-0.30946533917517116,0.06504135810000378,0.1692626199122285,0.546349426181107,2.817660031221662,1.3928971695239858,0.8526061136304384,0.596452825260027,0.015831507179055408,123.62770592499999,41.20923530833333,76.256714445,38.34572646045992,0.726937185,0
46.72334063,91.05036888,77.01308871,1,12.430033263430005,2.5049198698182296,81.88933105693299,3.004696137485232,0.09447843810001189,0.24586921960386296,4.522335915058346,2.864704189607571,1.4001814131060233,9.542031695608644,0.6066934959490797,1.9487126927055793,214.78679822,71.59559940666666,44.32702824999999,22.654651865188143,91.05036888,0
46.7305351,-1.821352343,75.04840156,2,12.43722773343,2.506369710737708,-10.982390166066999,-0.4029675769288573,-1.8702087118999913,-4.867002098451697,0.0,2.8651141902626303,0.7377612799534455,1.349574874914319,0.6226719491149686,-0.03897563552668081,119.957584317,39.985861439,76.869753903,38.87618465554441,-1.821352343,0
31.92455167,91.2548567,76.9774325,0,-2.3687556965699983,-0.4773553767181134,82.093818876933,3.012199236545715,0.05882222810001281,0.15307805261345392,4.524554928689295,1.009807967131772,1.3913514250898111,9.552740795185432,0.4147261115168252,2.858453731311124,200.15684087,66.71894695666667,59.330305030000005,30.966896324467122,91.2548567,0
32.24858753,0.17348479,77.03609126,1,-2.044719836569996,-0.4120551601341665,-8.987553033067,-0.3297727009776787,0.11748098810001295,0.30573069838288597,0.1599777749978453,1.1213875130244266,1.4058367217064929,0.4165150537495614,0.4186166066310799,0.0053796087800435585,109.45816358000002,36.48605452666667,76.86260647,38.60611561982636,0.17348479,0
32.47808445,93.50654464,77.00925716,2,-1.8152229165700007,-0.3658065795562381,84.345506816933,3.094818522462659,0.09064688810001087,0.23589805340638417,4.548669087551384,1.1935001368787568,1.39923628941248,9.669878212263068,0.42174259596841174,2.879065786804253,202.99388625,67.66462875,61.028460190000004,31.569127298380266,93.50654464,0
32.24011525,-1.747771595,77.03794795,0,-2.0531921165699956,-0.41376250733629344,-10.908809418067,-0.4002677406198373,0.11933767810000973,0.3105625195954918,0.0,1.1186231949263155,1.4062918076728617,1.322033129312575,0.41849654215125626,-0.054211082287893425,107.530291605,35.843430535,78.785719545,39.51626642078152,-1.747771595,0
32.1351672,0.377359955,76.99200597,0,-2.15814016657,-0.43491180357487375,-8.783677868067,-0.3222920815502374,0.07339569810000057,0.19100382454486828,0.3201685908148822,1.0837319062238242,1.3949698599178917,0.6142963087956821,0.4173831604691315,0.011742896525433468,109.504533125,36.50151104166667,76.61464601499999,38.493502242699144,0.377359955,0
32.08984638,-0.100689007,77.03310625,2,-2.2034609865700006,-0.4440449265624409,-9.261726830067,-0.3398327288007514,0.11449597810000967,0.2979625547305361,0.0,1.068279715776585,1.4051046432632717,0.3173153116381244,0.41657214054545355,-0.0031377215917441368,109.022263623,36.340754541,77.133795257,38.74220254234575,-0.100689007,0
31.58962848,-1.961266642,76.98525786,2,-2.7036788865699997,-0.5448496251818061,-11.122304465067,-0.40810133426156747,0.06664758810001103,0.17344264791171812,0.0,0.8796892476240779,1.3932960048055192,1.4004522990805506,0.41033347094989553,-0.06208577543594538,106.61361969800001,35.53787323266667,78.946524502,39.62107911461324,-1.961266642,0
31.80317671,0.357624343,77.00252923,2,-2.490130656569999,-0.5018150497180952,-8.803413480067,-0.32301622371115063,0.08391895809999994,0.21838939289168524,0.3057363656846065,0.96458510077647,1.3975745548380747,0.598017008955431,0.4130146972444493,0.011244924839304683,109.163330283,36.387776761,76.644904887,38.52757816817767,0.357624343,0
46.69544473,88.76730693,76.98550395,1,12.40213736343,2.4992982441382683,79.606269106933,2.920925671488445,0.06689367810000135,0.17408306870472368,4.497220843652785,2.863112858094706,1.3933570961852726,9.421640352401486,0.6065485283278642,1.900984251082338,212.44825561,70.81608520333333,42.071862200000005,21.703840512631373,88.76730693,0
31.56091883,-0.069752871,76.98878412,1,-2.7323885365699994,-0.5506352390427204,-9.230790694067,-0.33869761526217224,0.07017384810001204,0.1826193321558288,0.0,0.8677057582517016,1.3941710360081543,0.26410768826370806,0.4099417698409838,-0.00221010260080243,108.479950079,36.15998335966667,77.05853699100001,38.73458502048728,-0.069752871,0
31.90030834,-0.10863862,76.96639374,0,-2.392999026569999,-0.48224093074202956,-9.269676443067,-0.34012441724376724,0.04778346810000755,0.12435095507483267,0.0,1.0009371609109219,1.3886018792509627,0.3296037317749907,0.41447060691568516,-0.0034055663486553516,108.75806346,36.25268782,77.07503236,38.72140956469955,-0.10863862,0
31.74952299,-1.596411998,77.00719087,0,-2.543784376569999,-0.5126274318307861,-10.757449821067,-0.394714030623586,0.08858059810000896,0.23052077240986785,0.0,0.9439234629552133,1.398726229222903,1.2634919857284415,0.4122929588654276,-0.050281446692013856,107.160301862,35.72010062066666,78.603602868,39.45194178996045,-1.596411998,0
34.8463679,-0.234255942,76.99827621,1,0.5530605334299992,0.11145362928970858,-9.395293765067,-0.3447335876612448,0.07966593810000688,0.207321399713697,0.0,1.73464047519937,1.3965226731346958,0.4839999400826409,0.4525603580059632,-0.0067225352137048645,111.610388168,37.203462722666664,77.232532152,38.6701813760255,-0.234255942,0
45.49890976,0.540861506,77.03008076,1,11.205602393429999,2.2581706334742324,-8.620176317067,-0.3162928570795796,0.11147048810001081,0.29008906655504824,0.43234167948931207,2.7923565394938237,1.4043620897414497,0.7354328698120584,0.5906641758704009,0.011887350641270607,123.069852026,41.02328400866667,76.489219254,38.44052009170947,0.540861506,0
45.20363465,1.306994193,76.9890666,2,10.91032728343,2.198666328503639,-7.854043630067,-0.28818179675317845,0.07045632810000768,0.1833544537195353,0.8359454620666454,2.774097383637658,1.3942410994878325,1.1432384672499434,0.5871435524438018,0.02891347508239639,123.49969544300001,41.16656514766667,75.682072407,38.00220347005684,1.306994193,0
40.00266251,0.646884617,76.96894036,2,5.7093551434300025,1.150558235809604,-8.514153206067,-0.31240264051541716,0.050330088100011494,0.1309782394015036,0.49888539227513207,2.3816905609802643,1.3892368652054246,0.8042913756842106,0.5197247331608615,0.01617103863192234,117.61848748700001,39.20616249566667,76.322055743,38.16726159176245,0.646884617,0
32.08914243,-1.597900071,77.00941006,1,-2.2041649365699953,-0.4441867876745534,-10.758937894067,-0.394768631230743,0.0907997881,0.23629595799107855,0.0,1.0680378099351155,1.3992740221828326,1.2640807217104453,0.41669118083500906,-0.049795659846318306,107.50065241899999,35.83355080633333,78.60731013099999,39.437200041006584,-1.597900071,0
31.59626278,1.614617118,76.98527216,2,-2.697044586569998,-0.5435126706025105,-7.546420705067,-0.27689444829618853,0.06666188810000051,0.1734798620095425,0.9611176692059622,0.8824381155528433,1.3932995548557634,1.2706758508762177,0.41041957095265313,0.05110152039628275,110.196152058,36.732050686,75.370655042,37.94688588575618,1.614617118,0
31.66774674,-0.316644833,77.02981551,2,-2.6255606265699996,-0.5291071104577844,-9.477682656067,-0.34775661373026073,0.1112052381000126,0.2893987840756697,0.0,0.9115872437961182,1.4042969624782433,0.5627120338148102,0.4111102450294542,-0.009998969159402557,108.380917417,36.126972472333335,77.346460343,38.86556641162902,-0.316644833,0
32.34331344,1.568436736,76.00919791,2,-1.949993926569995,-0.3929658456394328,-7.592601087067,-0.27858890609224163,-0.9094123618999959,-2.3666406030311973,0.9432974399035263,1.1517850858498635,1.115811824978477,1.252372443005674,0.4255184096637653,0.048493383042409056,109.92094808600001,36.64031602866667,74.440761174,37.405947447917725,1.568436736,0
39.85469243,-1.232146372,77.00155752,2,5.561385063430002,1.1207390723628674,-10.393184195067,-0.3813483393261459,0.08294724810001242,0.21586062988307902,0.0,2.3679246600836223,1.397334323356631,1.1100208880917513,0.5175829320343995,-0.03091596662671908,115.624103578,38.541367859333334,78.23370389200001,39.13338373098117,-1.232146372,0
32.32032759,0.880247389,77.00463792,1,-1.97297977657,-0.3975979903143044,-8.280790434067,-0.3038400572019236,0.08602764809999996,0.22387701498951934,0.6314033580782843,1.1444933811441544,1.398095678335401,0.9382150014788722,0.4197192278711616,0.0272351002419063,110.20521289899999,36.73507096633333,76.12439053099999,38.25373416724451,0.880247389,0
44.12735742,0.479487387,77.03053322,0,9.834050053430005,1.9817732469065292,-8.681550436066999,-0.3185448058489822,0.11192294810000192,0.2912665414301305,0.3916956676443629,2.7045694549945827,1.404473173192426,0.6924502776373189,0.5728553990547672,0.01086598890502995,121.637378027,40.54579267566667,76.55104583299999,38.400994245525794,0.479487387,0
32.21519511,-1.017581494,76.97609215,0,-2.0781122565699945,-0.41878445317680074,-10.178619317067,-0.37347549127810936,0.057481878100006156,0.14958994659556207,0.0,1.110447726079339,1.3910179722819913,1.0087524443588725,0.4185090953787904,-0.03158700293257349,108.173705766,36.057901922,77.993673644,39.13857532989593,-1.017581494,0
32.1788118,97.95640266,77.04026716,2,-2.1144955665699996,-0.4261164750803061,88.79536483693299,3.258093408610599,0.12165688810000574,0.3165979956709205,4.594679375968369,1.0983902473520935,1.4068599693309147,9.897292693459155,0.4176882112244195,3.044127304162073,207.17548161999997,69.05849387333332,65.77759086,33.607356239909706,97.95640266,0
31.89647715,0.223110011,76.98626769,1,-2.396830216569999,-0.4830129981816464,-8.937927812067,-0.3279518446104813,0.06765741810001202,0.1760706138161712,0.20139680441759072,0.9995280728070769,1.39354666944275,0.47234522438572407,0.4143138470372852,0.006994816479448844,109.105854851,36.36861828366667,76.763157679,38.57649062515056,0.223110011,0
32.15278567,-1.191935013,76.99596617,1,-2.140521696569998,-0.4313613017665927,-10.352972836067,-0.3798728978551888,0.07735589810000931,0.20130978750380973,0.0,1.0896750771695045,1.3959508765363036,1.0917577629675916,0.41759051612417064,-0.037070970713469424,107.95681682700001,35.985605609000004,78.18790118300001,39.23461296309981,-1.191935013,0
45.92229778,0.377672005,77.00848689,0,11.628990413430003,2.3434924537352635,-8.783365818067,-0.32228063176285243,0.08987661810000702,0.2338935147243969,0.320395121763245,2.8179695054742075,1.3990461799800458,0.6145502461149942,0.5963277430612072,0.008224152863281379,123.308456675,41.102818891666665,76.630814885,38.542067667045345,0.377672005,0
31.69270244,0.844792533,76.99987594,1,-2.6006049265699964,-0.5240779985101,-8.316245290067,-0.30514097232118653,0.08126566810000213,0.21148451221413186,0.6123668229312309,0.9215666258374803,1.3969184575163258,0.9191259614438057,0.41159419598417873,0.02665574221521823,109.53737091299999,36.512456971,76.15508340699999,38.30563545336512,0.844792533,0
32.61581111,1.65756952,76.96824243,0,-1.6774962565699951,-0.33805168623244386,-7.503468303067,-0.2753184320469486,0.049632158100010315,0.12916195721173282,0.9774119908165424,1.234404990105562,1.3890628802317624,1.2874663180060284,0.423756729483673,0.05082104086231812,111.24162306000001,37.080541020000005,75.31067291000001,37.85333173468603,1.65756952,0
32.01113874,1.729877378,77.00555126,0,-2.282168626569998,-0.4599062140718268,-7.4311604450669995,-0.2726653008168085,0.08694098810001094,0.2262538768169553,1.0042566917045765,1.040863426430161,1.3983213090629785,1.315248029080447,0.41569909961710594,0.05403985587674674,110.74656737800001,36.91552245933334,75.275673882,37.8767277407533,1.729877378,0
32.16856211,52.70793096,76.97192083,2,-2.1247452565699945,-0.42818200874351847,43.546893136933,1.5978294109773048,0.05331055810000862,0.1387345682283656,3.983560680740059,1.0949670729345804,1.3899795175821559,7.260022793352649,0.4179259312382431,1.6384919270334173,161.84841390000003,53.949471300000006,44.80335872,22.42746764483533,52.70793096,0
31.79485927,-1.206483081,77.03973954,0,-2.498448096569998,-0.5034911933196827,-10.367520904067,-0.38040669784064823,0.12112926810000602,0.31522492557941456,0.0,0.9614099453891718,1.406730740983854,1.0984002371631207,0.4127072475470204,-0.03794585259235674,107.628115729,35.876038576333336,78.246222621,39.28243700448848,-1.206483081,0
31.90016533,1.270377754,76.98263084,1,-2.393142036569998,-0.4822697503423466,-7.890660069067,-0.289525332857476,0.06402056810000545,0.16660613187404422,0.8199462291022058,1.0008845983720054,1.3926436193523464,1.1271103557327473,0.41438132949651574,0.03982354639967171,110.153173924,36.717724641333334,75.712253086,38.08533805978739,1.270377754,0
31.84720554,-0.735142036,76.97989574,0,-2.446101826569997,-0.49294229058909667,-9.896179859067,-0.3631121785293948,0.06128546810001012,0.1594883501234027,0.0,0.981227057626977,1.3919639411340625,0.8574042430499164,0.4137080833917471,-0.023083407176596907,108.09195924400001,36.030653081333334,77.715037776,39.02605154418767,-0.735142036,0
31.82493349,1.82195498,77.01307611,1,-2.4683738765699985,-0.49743058916434874,-7.339082843067,-0.26928677504907506,0.09446583810000675,0.2458364295595886,1.0374299000787048,0.9728433151246944,1.4001783065430726,1.3497981256469427,0.4132406428137332,0.05724929239280894,110.65996458000001,36.88665486,75.19112113,37.850256823662626,1.82195498,0
31.83977668,1.231556419,77.00967371,1,-2.453530686569998,-0.4944393661503382,-7.929481404066999,-0.2909497713505127,0.09106343810000794,0.23698207665533813,0.8026992877610801,0.9784384585889686,1.3993390825726997,1.1097551166811532,0.41345164487320557,0.03867980585095593,110.081006809,36.69366893633333,75.778117291,38.12152892486355,1.231556419,0
32.09233879,1.217031555,76.95954308,2,-2.2009685765699984,-0.4435426521758464,-7.944006268067,-0.29148271993117647,0.040932808100009765,0.1065229039147591,0.7961691637308987,1.0691357391103866,1.3868917001773884,1.1031915314214482,0.4170027145254367,0.037922805347437714,110.268913425,36.756304475,75.742511525,38.08604002730965,1.217031555,0
31.85942765,1.595147865,77.00146634,2,-2.4338797165699972,-0.4904792717426245,-7.565889958067,-0.277608817171032,0.0828560680999999,0.21562334446751336,0.9536434957266889,0.9857980630040477,1.397311778374393,1.2629916329889126,0.4137509160614394,0.050068313607375375,110.456041855,36.81868061833333,75.40631847499999,37.94698748242374,1.595147865,0
31.99904235,-0.617846671,76.98570985,1,-2.294265016569998,-0.4623438976259985,-9.778884494067,-0.3588083586591923,0.06709957810001299,0.17461889966612998,0.0,1.0365824403999626,1.3934082076056038,0.786032232799648,0.4156491119806293,-0.01930828569598472,108.36690552900001,36.122301843,77.603556521,38.96574069374239,-0.617846671,0
32.00685271,0.203706844,76.96910371,2,-2.286454656570001,-0.46076994158422463,-8.957330979067,-0.3286637886474811,0.050493438100005505,0.13140333890387157,0.1854058321894981,1.0393486698501118,1.389277581888596,0.4513389458045915,0.4158402625390236,0.006364475741530174,109.179663264,36.393221088,76.765396866,38.570217910445606,0.203706844,0
32.20406183,1.722109856,76.97660367,1,-2.0892455365699973,-0.42102804928770615,-7.438927967066999,-0.2729503079483847,0.057993398100009586,0.15092111829718863,1.001407261974772,1.1067735547523347,1.3911452415519372,1.312291833396825,0.41836168233269516,0.0534749253561806,110.902775356,36.96759178533333,75.254493814,37.85271619087407,1.722109856,0
31.95400103,15.7299013,76.96768682,1,-2.3393063365699973,-0.47142069533359415,6.568863476933,0.24102576565298942,0.04907654810000395,0.1277160463790298,2.8171976153997402,1.0204789054074157,1.3889243521595844,3.9660939600569223,0.41516124408893545,0.49226701823552454,124.65158915,41.55052971666667,61.237785519999996,31.72674921850476,15.7299013,0
31.95505188,72.86562526,76.96629705,2,-2.3382554865699987,-0.47120892638741285,63.704587436933004,2.3374586816292875,0.04768677810000099,0.12409933052087947,4.302247567639931,1.0208575834639595,1.3885777621743234,8.53613643635105,0.41518239397769763,2.2802536279201426,181.78697419,60.59565806333333,45.011245169999995,24.88809191549081,72.86562526,0
32.33131552,-1.498910524,76.99036804,2,-1.961991846570001,-0.3953836853642005,-10.659948347067,-0.3911364912964758,0.07175776810001366,0.1867413009578861,0.0,1.1479856700349103,1.394563832099455,1.2243000138854856,0.4199397395173207,-0.046360949238574346,107.822773036,35.940924345333336,78.489278564,39.368942953529256,-1.498910524,0
31.67516766,22.95690196,76.98151845,0,-2.6181397065699983,-0.5276116349778414,13.795864136933,0.5062000037183616,0.06290817810000249,0.1637112654188394,3.1762564643863835,0.9145651679446792,1.3923672437833388,4.791336135150612,0.4114645682016348,0.7247602122160255,131.61358807,43.87119602333333,54.02461649,29.003829533396416,22.95690196,0
31.85273845,18.60568675,77.06954948,1,-2.4405689165699975,-0.49182728985633994,9.444648926933,0.34654453497647714,0.15093920810001293,0.39280185034272475,2.975819664460035,0.9832989258576528,1.4140059413065247,4.313430971975789,0.41329861471380935,0.5841157486377517,127.52797468,42.509324893333336,58.46386273,30.65416671997867,18.60568675,0
31.87918986,0.125091157,76.97327901,0,-2.4141175065699976,-0.48649676007500414,-9.035946666067,-0.3315483677254371,0.0546687381000055,0.14226907476124578,0.11786406081820083,0.9931451043584216,1.3903177563992506,0.3536822825644508,0.41415917128461216,0.0039239125468820005,108.97756002700001,36.32585334233334,76.848187853,38.61658459996601,0.125091157,0
32.00446684,0.880722353,76.96801397,0,-2.2888405265699987,-0.46125074586230974,-8.280315470067,-0.30382262974858104,0.04940369810000789,0.1285674164568165,0.6316559333634406,1.038504467245676,1.389005921514931,0.938468088429223,0.41581515194947477,0.027518731365976684,109.853203163,36.617734387666665,76.087291617,38.25285171725587,0.880722353,0
32.14129953,0.208619918,77.00195115,0,-2.15200783657,-0.43367600678014795,-8.952417905067,-0.32848351736817705,0.08334087810000312,0.216885006480075,0.18947914503457744,1.0858045114675248,1.3974316456805567,0.4567492944712668,0.41740889201599285,0.0064907117807905335,109.35187059799999,36.45062353266666,76.793331232,38.57760536174953,0.208619918,0
32.27079629,2.028213976,77.00547392,0,-2.022511076569998,-0.4075796158593422,-7.132823847067,-0.26171868772190043,0.08686364810000669,0.22605260840240893,1.1079729988644906,1.1285976795194435,1.3983022050287446,1.4241537754048894,0.4190714533418009,0.06284982542493607,111.304484186,37.101494728666665,74.977259944,37.72133498077102,2.028213976,0
31.62676793,-0.617065787,76.96355065,0,-2.666539436569998,-0.5373652247552337,-9.778103610067,-0.35877970634138306,0.044940378100008616,0.11695214182578936,0.0,0.8949813225919475,1.387892493425907,0.7855353505730981,0.41093176252865926,-0.019510870312606416,107.973252793,35.99108426433333,77.580616437,38.974009987244386,-0.617065787,0
32.46016721,-0.073333053,76.99095418,1,-1.8331401565699963,-0.3694172899652226,-9.234370876067,-0.3388289798598317,0.07234390810000946,0.18826666258828287,0.0,1.1880535710449855,1.394709149769953,0.2708007625543178,0.42161013763383215,-0.002259170455481752,109.377788337,36.459262779,77.064287233,38.687474274112006,-0.073333053,0
31.61862677,-0.471844351,76.97340085,1,-2.674680596569999,-0.5390058441337328,-9.632882174067,-0.3534512187081663,0.05479057810001109,0.14258614928449517,0.0,0.891649175180408,1.3903480936326618,0.6869092742131234,0.41077341016596886,-0.014922986362099168,108.120183269,36.040061089666665,77.445245201,38.91148046712048,-0.471844351,0
47.14282668,-0.450222959,75.99836491,1,12.849519313430001,2.5894553589426246,-9.611260782067,-0.3526578832126756,-0.9202453618999868,-2.3948322339422305,0.0,2.888333505960167,1.1122560872935985,0.6709865564972222,0.6203136885315169,-0.009550189947367196,122.690968631,40.89698954366667,76.44858786900001,38.60510986827073,-0.450222959,0
39.7903801,1.337823041,76.971663,0,5.497072733430002,1.107778750384867,-7.823214782067,-0.2870506198426684,0.05305272810001327,0.138063595441726,0.8492201719903423,2.361881986710674,1.3899152951187699,1.1566430049933298,0.5169484201354929,0.03362176998601303,118.099866141,39.366622047,75.633839959,37.818700597740246,1.337823041,0
31.74812499,95.38243205,76.96065443,0,-2.545182376569997,-0.5129091589914289,86.221394226933,3.163648876581262,0.04204415810001194,0.10941506389011811,4.5683239448635184,0.9433793556382879,1.3871693332201367,9.766392990761737,0.4125240983540828,3.004348416660671,204.09121147000002,68.03040382333334,63.634307060000005,32.74359923213993,95.38243205,0
31.90316192,0.233385604,77.03769061,1,-2.390145446569999,-0.4816658728085045,-8.927652219067,-0.3275748109456684,0.11908033810000518,0.3098928219772162,0.20976291170561515,1.0019854013848328,1.4062287444417463,0.48309999379010554,0.41412406386095246,0.007315437801111916,109.174238134,36.39141271133334,76.80430500599999,38.59836283105926,0.233385604,0
32.10795192,1.463835566,77.04749102,1,-2.18535544657,-0.4403962696410454,-7.697202257067,-0.28242694857492995,0.12888074810000205,0.3353972567133872,0.9017193088665002,1.0744814921461971,1.4086276096717472,1.2098907248177415,0.416729358454204,0.04559105869026546,110.619278506,36.87309283533333,75.583655454,38.016472336402856,1.463835566,0
32.76281261,-2.80257719,76.98887085,1,-1.5304947565700004,-0.3084277125519856,-11.963615013066999,-0.4389708324168728,0.07026057810000452,0.18284503696047238,0.0,1.2762938640450165,1.3941925481616115,1.6740899587537106,0.4255525743231163,-0.0855414075042867,106.94910626999999,35.64970209,79.79144803999999,39.97398395497134,-2.80257719,0
39.94897706,1.695089459,76.99741793,0,5.655669693429999,1.139739459417365,-7.465948364067,-0.27394174457940046,0.07880765810000412,0.205087825174934,0.9914313982441748,2.3767179914799605,1.3963102640805864,1.3019560126978178,0.5188352754566808,0.04243135973225945,118.64148444899999,39.547161483,75.302328471,37.65277227651417,1.695089459,0
32.22791507,2.060984234,76.98653832,1,-2.0653922965699962,-0.4162211068146449,-7.100053589067,-0.26051627629215585,0.06792804810000064,0.17677489712394728,1.1187365093456334,1.1146290724190564,1.39361383578895,1.4356128426564037,0.41861753177451444,0.06395027930206473,111.275437624,37.09181254133333,74.92555408599999,37.69884332088001,2.060984234,0
32.15582919,-0.517146491,77.00324013,0,-2.1374781765699993,-0.4307479668252764,-9.678184314067,-0.3551134519114536,0.08462985810000134,0.22023942800796972,0.0,1.0906981677982703,1.3977502708913914,0.7191289807816119,0.4175905938259563,-0.016082510945739013,108.641922829,36.21397427633333,77.520386621,38.919198239732886,-0.517146491,0
31.58446854,-0.218963208,77.01083256,0,-2.7088388265699983,-0.5458894644130569,-9.380001031067,-0.3441724642744943,0.09222228810000388,0.2399978498927759,0.0,0.8775460324483599,1.3996249995182848,0.4679350467746565,0.4101301996087627,-0.006932622620832529,108.376337892,36.125445964,77.229795768,38.81463249298782,-0.218963208,0
31.93977329,125.421869,77.01647476,2,-2.3535340765699964,-0.47428789189480197,116.260831176933,4.265860593430481,0.09786448810000081,0.2546810235220824,4.839624480988026,1.0153377174785752,1.4010159030078773,11.199190551106808,0.41471351389190086,3.926823898666943,234.37811705,78.12603901666667,93.48209571,46.750924100098324,124.384680729,1
34.29028276,136.9886657,76.99310226,0,-0.0030246065700012537,-0.000609523477130924,127.82762787693301,4.690271306266857,0.07449198810000723,0.19385679261019367,4.9271715491754415,1.6313569084452206,1.3952415280812847,11.704215723404966,0.4453682382979714,3.9949703145880306,248.27205072,82.75735024000001,102.69838294000002,51.59127233073364,124.384680729,1
32.23037793,-0.308603459,76.95923042,1,-2.062929436569995,-0.4157247873905663,-9.469641282067,-0.3474615583782873,0.04062014810000392,0.10570924238786758,0.0,1.1154366552801833,1.386813578803057,0.5555208897962344,0.4187980744519759,-0.009574924938681137,108.881004891,36.293668297,77.267833879,38.79384338452561,-0.308603459,0
31.86887722,-2.666757988,76.99115748,2,-2.4244301465699962,-0.4885749795213092,-11.827795811067,-0.4339873330235025,0.07254720810000492,0.1887957273500377,0.0,0.9893178861546119,1.3947595476127148,1.633021122949731,0.41392905171414696,-0.08367906675567947,106.193276712,35.397758904,79.657915468,39.946033953717,-2.666757988,0
32.07656803,-1.185382988,77.01530199,0,-2.2167393365700008,-0.44672080055637925,-10.346420811067,-0.37963248992956394,0.09669171810000421,0.25162902509288787,0.0,1.0637068470566056,1.4007269533960673,1.0887529508570803,0.41649603110910255,-0.03695479360312371,107.906487032,35.96882901066667,78.200684978,39.24536984681523,-1.185382988,0
32.23918637,-0.36139787,76.98126513,1,-2.054120996569999,-0.4139496966960783,-9.522435693066999,-0.34939869916042676,0.06265485810000371,0.16305202938612876,0.0,1.1183196565252915,1.392304295232338,0.60116376304631,0.4187926230721766,-0.011209893904965386,108.85905362999999,36.28635121,77.342663,38.82984081108872,-0.36139787,0
44.51450037,-0.596999692,76.9716188,0,10.221193003430002,2.059790903606463,-9.758037515067,-0.35804343804656713,0.053008528100008334,0.13794857004835318,0.0,2.730139266101165,1.3899042849971264,0.772657551571199,0.5783235494545225,-0.013411353011410809,120.889119478,40.296373159333335,77.568618492,38.95596349165793,-0.596999692,0
31.96616454,1.448807941,77.0018487,1,-2.3271428265699967,-0.4689694856513663,-7.712229882067,-0.28297834454080595,0.08323842810000315,0.2166183921916196,0.8956013514566141,1.0248533238093842,1.397406316530882,1.2036643805479998,0.41513502162013655,0.04532316956148754,110.41682118099999,36.80560706033333,75.553040759,38.00829705358405,1.448807941,0
32.03338581,0.542055938,77.00982892,2,-2.2599215565699993,-0.4554229495054972,-8.618981885066999,-0.31624903079390154,0.09121864810001057,0.23738599274818212,0.4331165507477614,1.0486892690601963,1.3993773814585848,0.7362444824920591,0.41596489491376865,0.01692159312454542,109.58527066799999,36.528423556,76.467772982,38.43155083339919,0.542055938,0
32.1430899,2.714485716,77.01050315,1,-2.1502174665699982,-0.4333152085994604,-6.446552107066999,-0.23653789774805573,0.0918928781000119,0.23914059842612906,1.3122402341318764,1.0864088115529078,1.3995437342428956,1.6475696391958672,0.4173857872348444,0.08445005256168442,111.868078766,37.28935958866666,74.296017434,37.41440391640197,2.714485716,0
44.18046468,0.756457653,76.99296809,0,9.887157313430002,1.992475505539817,-8.404580170067,-0.3083821695481695,0.07435781810001174,0.19350763068651516,0.5632990836941548,2.7081159876048972,1.395208283800475,0.8697457404322254,0.5738246647996621,0.01712199365391569,121.929890423,40.643296807666665,76.236510437,38.241143397138416,0.756457653,0
31.77208586,-2.748086988,76.9884251,0,-2.521221506569997,-0.5080805267513435,-11.909124811066999,-0.43697146940624615,0.06981482810000728,0.18168502408513537,0.0,0.9526643227416337,1.394081981236855,1.657735500011989,0.4126865227603348,-0.08649375157852,106.012423972,35.33747465733333,79.736512088,39.987646066592305,-2.748086988,0
31.97736435,-0.917706559,77.01021031,1,-2.3159430165699995,-0.4667124823101346,-10.078744382067,-0.3698108645489272,0.09160003810001172,0.2383785161593517,0.0,1.0288643107314555,1.3994714852220327,0.9579700198858,0.41523537990665976,-0.028698629451034494,108.069868101,36.023289367,77.927916869,39.12118593317224,-0.917706559,0
31.83074438,93.3040163,77.00295545,1,-2.462562986569999,-0.4962595694644135,84.142978476933,3.0873873209486766,0.08434517810000841,0.21949858119844692,4.546523779400536,0.9750374616722259,1.3976799090808403,9.659400410998604,0.41337041910421346,2.9312545209395284,202.13771613,67.37923871,61.47327192,31.84654978261197,93.3040163,0
31.82861707,-0.676115238,77.02635694,0,-2.464690296569998,-0.4966882683242901,-9.837153061067,-0.3609463580290977,0.1077466681000061,0.28039825523599127,0.0,0.9742347645903199,1.4034473857287917,0.8222622683791346,0.4132172144864104,-0.021242368629169953,108.178858772,36.059619590666664,77.702472178,39.02364132664495,-0.676115238,0
32.3803377,0.107718845,76.96152818,0,-1.9129696665699996,-0.3855046584829865,-9.053318978066999,-0.33218579531327874,0.04291790810000862,0.11168889731654126,0.10230280612511354,1.1634194768364607,1.3873875558647153,0.32820549203204996,0.4207340738288589,0.003326674436546274,109.449584725,36.48319490833333,76.85380933500001,38.590828965948795,0.107718845,0
40.18886335,1.858762248,76.98383194,0,5.89555598343,1.1880817221919835,-7.302275575067,-0.26793623701727587,0.0652216681000084,0.16973185585515319,1.0503887507357064,2.3987481362796244,1.3929419493637236,1.3633643122804704,0.5220428993360537,0.04625067859127002,119.031457538,39.677152512666666,75.125069692,37.565148875556815,1.858762248,0
31.92479405,-0.835316465,76.02099717,1,-2.3685133165699988,-0.4773065319189742,-9.996354288067,-0.366787794339247,-0.8976131018999922,-2.335934392106828,0.0,1.0098962595843204,1.1196703889660506,0.9139564896645792,0.41994705171601404,-0.026165131638018143,107.110474755,35.703491585,76.856313635,38.56724196369418,-0.835316465,0
32.1083576,-1.581031531,77.02033772,1,-2.18494976657,-0.4403145163688496,-10.742069354067,-0.3941496881238837,0.10172744810000722,0.26473393061562583,0.0,1.0746200120352514,1.4019670774539121,1.2573907630486236,0.4168815423770964,-0.04924049686551091,107.547663789,35.849221263,78.601369251,39.43398734267025,-1.581031531,0
34.61872743,0.969575471,77.00831352,0,0.32542006343000196,0.0655791634380859,-8.191462352067,-0.3005624172518822,0.08970324810000818,0.23344233932967548,0.6778180225727773,1.6936411064996435,1.3990033857510886,0.9846702346471127,0.44954532047327295,0.028007252576029987,112.596616421,37.532205473666664,76.038738049,38.10300102031736,0.969575471,0
31.97970902,-1.602819369,76.93992812,0,-2.3135983465699965,-0.4662399807209029,-10.763857192067,-0.3949491308820281,0.02131784810001136,0.05547723672606762,0.0,1.0297019744874958,1.3819788401399653,1.266025027003811,0.4156451583172449,-0.05011988438912055,107.316817771,35.77227259033334,78.542747489,39.408481950037974,-1.602819369,0
45.76911173,3.669103079,76.99931657,1,11.47580436343,2.3126221598034764,-5.491934744067,-0.20151092822270636,0.08070629810001151,0.21002881641588084,1.5409669930635832,2.8087780352427414,1.3967800832790191,1.915490297286833,0.5944093165292191,0.08016548410375969,126.437531379,42.145843793000004,73.33021349100001,36.799131858868336,3.669103079,0
31.99912762,-1.003338556,76.97467562,2,-2.2941797465699985,-0.4623267138813719,-10.164376379067,-0.3729528871703131,0.05606534810000596,0.1459035909291313,0.0,1.0366126822017185,1.3906654464917279,1.0016678870763502,0.4157098025623378,-0.03135518369624904,107.970464684,35.99015489466667,77.978014176,39.14190718064801,-1.003338556,0
31.88530864,1.548762213,76.99977204,2,-2.4079987265699963,-0.4852636938976076,-7.612275610067,-0.2793108067660164,0.08116176810000297,0.21121412446820415,0.9356078346557145,0.9954089963817484,1.3968927566862266,1.2444927532934855,0.4140961379644088,0.048572908040920626,110.43384289299999,36.81128096433333,75.451009827,37.965940308170765,1.548762213,0
32.3150679,2.983173795,76.99465563,0,-1.9782394665699954,-0.39865793132257465,-6.177864028067,-0.22667915274746048,0.07604535810000357,0.19789925856682664,1.3820789374428935,1.1428173700910136,1.3956263374649724,1.7271866705715395,0.4197053316997175,0.09231525404545865,112.292897325,37.430965775,74.011481835,37.27001702647459,2.983173795,0
34.88784759,-1.067364834,76.98498494,1,0.5945402234300019,0.11981268171321237,-10.228402657066999,-0.3753021493723746,0.06637466810001058,0.17273240514348603,0.0,1.7419334732700598,1.3932282485637417,1.0331335025058475,0.4531772937802526,-0.030594171814479317,110.805467696,36.935155898666665,78.052349774,39.066429703695235,-1.067364834,0
31.8494885,78.88448168,77.01145915,2,-2.4438188665699982,-0.49248222489620574,69.72344385693299,2.5583035023627576,0.09284887809999987,0.2416284779747888,4.3805816121315155,0.9820824611682474,1.3997795607188592,8.881693626780875,0.413568168139713,2.4767895158884725,187.74542932999998,62.58180977666666,47.034993179999994,26.631442537697158,78.88448168,0
45.75231022,-1.633882034,74.99029496,0,11.45900285343,2.3092362930604025,-10.794919857067,-0.3960888870424565,-1.9283153118999934,-5.018217811614853,0.0,2.807764750445952,0.7095823551304937,1.2782339511998577,0.6101097433247148,-0.03571146441419053,119.10872314599999,39.70290771533333,76.624176994,38.6686252406206,-1.633882034,0
32.00549467,-0.207351396,76.99472052,0,-2.2878126965700005,-0.46104361594276516,-9.368389219067,-0.3437464018532328,0.076110248100008,0.19806812729478224,0.0,1.0388682361200643,1.3956424091520194,0.45535853566173545,0.4156842707936324,-0.006478618489085253,108.792863794,36.264287931333335,77.20207191600001,38.776835444152645,-0.207351396,0
32.39052729,-2.362443295,76.93637808,0,-1.9027800765699965,-0.38345123626637806,-11.523481118067,-0.4228213707322562,0.01776780810000389,0.046238667779358665,0.0,1.1665978120614062,1.3810870943085152,1.537024168645373,0.42100405136456553,-0.07293623845367667,106.964462075,35.654820691666664,79.298821375,39.750062596493635,-2.362443295,0
31.94733593,-0.238620388,76.96821157,2,-2.3459714365699966,-0.4727638567773727,-9.399658211066999,-0.3448937285962017,0.04960129810000069,0.129081647627113,0.0,1.0180737647646851,1.389055186531749,0.4884878586003955,0.4150718181345965,-0.007469179309776039,108.67692711199999,36.22564237066666,77.206831958,38.78081555031946,-0.238620388,0
31.97439309,1.428031663,77.01552462,0,-2.3189142765699984,-0.4673112553025039,-7.733006160066999,-0.2837406709812859,0.09691434810000032,0.2522083939463559,0.8870809138865215,1.0278017805658368,1.4007818118782416,1.1950027878628569,0.41516814736503777,0.04466172709889184,110.417949373,36.80598312433333,75.587492957,38.02466922375569,1.428031663,0
44.71088886,2.063650548,76.94909954,2,10.41758149343,2.0993674212535964,-7.097387275067,-0.2604184434820239,0.030489268100012623,0.07934479765751032,1.1196071944602066,2.7428644900842127,1.3842789640709379,1.4365411751843384,0.581044983583118,0.046155434491725864,123.723638948,41.24121298266667,74.88544899200001,37.563101651802796,2.063650548,0
31.75026233,-2.218638454,77.0194237,0,-2.543045036569996,-0.5124784388701633,-11.379676277067,-0.4175448610242458,0.10081342810001104,0.26235529916679207,0.0,0.9442110974654969,1.4017421005242863,1.4895094675764904,0.41223707465579135,-0.06987779694739306,106.551047576,35.51701585866667,79.238062154,39.75309984881159,-2.218638454,0
32.42658154,-0.36011658,76.99341808,0,-1.866725826569997,-0.37618552705205927,-9.521154403067,-0.3493516858674336,0.07480780810000454,0.19467867767197286,0.0,1.1777634267038353,1.3953197767470504,0.6000971421361712,0.4211604306896303,-0.01110559768534893,109.05988303999999,36.353294346666665,77.35353466,38.825978882682215,-0.36011658,0
43.98191522,-1.471137969,77.00547401,2,9.68860785343,1.9524635058166204,-10.632175792066999,-0.39011745636653383,0.08686373810000703,0.22605284261701167,0.0,2.6947918543727893,1.3983022272601837,1.212904765016611,0.5711530928714934,-0.0334487010898135,119.51625126100001,39.838750420333334,78.476611979,39.40201794126196,-1.471137969,0
32.33919705,18.2996686,77.02326379,0,-1.9541103165699951,-0.3937953870319935,9.138630776933,0.33531606917467316,0.10465351810000811,0.272348689727593,2.960087924778961,1.1504831628909764,1.4026869602850787,4.277811192654487,0.4198627147027742,0.5658664934024238,127.66212944,42.554043146666665,58.72359519,30.665493124906494,18.2996686,0
47.11004462,-1.983798443,75.95920501,0,12.816737253429999,2.5828490666079795,-11.144836266067,-0.4089280746264169,-0.9594052618999882,-2.496741349359375,0.0,2.8865068972680366,1.0992960548467283,1.4084737991883272,0.6202019096118248,-0.04210988159514332,121.085451187,40.36181706233334,77.943003453,39.40725666924978,-1.983798443,0
44.198767,0.546186966,76.99604779,2,9.905459633429999,1.9961638178765702,-8.614850857067,-0.3160974544686924,0.07743751810001243,0.20152219412386405,0.4357918781700913,2.7093353183185656,1.3959710852392209,0.739044630587355,0.5740394175361943,0.012357515621249898,121.741001756,40.58033391866667,76.44986082400001,38.35316282231895,0.546186966,0
32.08836349,-0.681249338,77.00228935,0,-2.204943876569999,-0.44434376088951216,-9.842287161067,-0.36113473922894823,0.08367907810000474,0.21776513290619565,0.0,1.067770066261793,1.3975152557520683,0.8253782999328247,0.4167195981333561,-0.021230416346470517,108.409403502,36.136467834,77.683538688,38.99965906719483,-0.681249338,0
32.24742719,0.064936369,76.9834832,1,-2.0458801765699945,-0.4122889936775,-9.096101454067,-0.33375557661116095,0.06487292810000156,0.16882430029675616,0.06291504995859999,1.1210093709827602,1.3928553382609599,0.25482615446613793,0.41888760329712393,0.00201369140563392,109.295846759,36.43194891966667,76.918546831,38.62963083214392,0.064936369,0
32.141403,-0.679982773,77.03428575,0,-2.151904366570001,-0.4336551553428722,-9.841020596067,-0.3610882662279571,0.11567547810000178,0.30103206720716946,0.0,1.085839445438533,1.4053939815607248,0.8246106796543445,0.4172350307377903,-0.021155976042614693,108.495705977,36.165235325666664,77.714268523,39.013078614165366,-0.679982773,0
31.35740793,23.62730462,76.99930115,0,-2.935899436569997,-0.5916470759647009,14.466266796933,0.5307985229279196,0.08069087810000042,0.20998868764739922,3.2038557713084517,0.7783749211488128,1.3967762684830083,4.860792591748798,0.4072427548617725,0.7534839588546323,131.9840137,43.99467123333333,53.37199652999999,28.84298565072476,23.62730462,0
45.25983117,0.914112405,76.9701207,0,10.96652380343,2.209991139675045,-8.246925418067,-0.30259747674049164,0.05151042810000206,0.13404993788108366,0.6492540191015463,2.777598236146241,1.3895310399191994,0.956092257577688,0.5880181838143047,0.020196990602318447,123.14406427499999,41.048021424999995,76.056008295,38.20253401854823,0.914112405,0
31.81002461,-1.357375242,76.99799056,1,-2.4832827565699986,-0.5004350501305642,-10.518413065067,-0.38594325660210993,0.07938028810001185,0.20657802859123756,0.0,0.9671917181189275,1.3964519848428443,1.1650644797606697,0.4131279786072383,-0.04267130302382677,107.450639928,35.816879976,78.35536580200001,39.33105649400154,-1.357375242,0
31.74459259,0.801040521,76.99306282,1,-2.548714776569998,-0.5136210137999097,-8.359997302067,-0.30674632798555523,0.07445254810001245,0.19375415456690143,0.588364565107846,0.9420032105657138,1.3952317558591232,0.8950086709077181,0.4123045767371308,0.02523391955637886,109.538695931,36.51289864366667,76.192022299,38.319167820673044,0.801040521,0
32.14624154,3.154425675,76.00288934,2,-2.1470658265699996,-0.4326800851455484,-6.006612148066999,-0.2203955519934704,-0.9157209318999975,-2.3830579275965635,1.4241741937233676,1.087471692029585,1.1137426880210148,1.7760702899941772,0.42296077683616157,0.0981273525537209,111.303556555,37.10118551833333,72.848463665,36.67612666243564,3.154425675,0
31.85202326,53.14763715,77.05166493,1,-2.4412841065699986,-0.491971416070947,43.986599326933,1.6139631792431954,0.13305465810000783,0.34625937525636985,3.991714337222562,0.983031355353624,1.4096475209462402,7.290242598844019,0.41338526397257874,1.6685795764868603,162.05132534,54.01710844666667,45.199641670000005,22.612361376598763,53.14763715,0
31.90362201,0.097681505,76.97175274,0,-2.3896853565699985,-0.4815731547474598,-9.063356318067,-0.33255408696176786,0.05314246810000611,0.13829713342361066,0.09320023270337971,1.002154309060211,1.389937648780166,0.31254040538784744,0.41448480072009336,0.0030617684069731616,108.97305625499999,36.324352084999994,76.874071235,38.62722935777262,0.097681505,0
31.77819466,0.88647983,76.99389216,2,-2.5151127065699974,-0.5068494717592572,-8.274557993066999,-0.3036113755023895,0.07528188810000813,0.19591241609922433,0.6347125686078485,0.9550177885837572,1.3954372249701974,0.9415305783669482,0.4127365607290717,0.027895851592223467,109.65856665000001,36.552855550000004,76.10741233,38.27770359952424,0.88647983,0
35.15668577,-0.41726388,77.02825929,1,0.8633784034300049,0.17398937493486438,-9.578301703067,-0.3514485435332793,0.10964901810000072,0.2853489013232706,0.0,1.787953555919357,1.4039147757877821,0.6459596581830788,0.4564128235226953,-0.011868691800504384,111.76768118,37.25589372666666,77.44552316999999,38.76541332557607,-0.41726388,0
31.91653312,-0.655515839,77.03088388,0,-2.3767742465699975,-0.4789712875364072,-9.816553662067,-0.36019052166053844,0.1122736081000113,0.2921790935667072,0.0,1.0068826234973274,1.4045592552396162,0.8096393264905059,0.4143342396977538,-0.020538440562981777,108.291901161,36.097300387,77.68639971900001,39.011578877695726,-0.655515839,0
45.08911926,-2.348203931,77.00647284,1,10.795811893429999,2.175589006847958,-11.509241754067,-0.4222988977622266,0.08786256810000737,0.22865218229234632,0.0,2.766925303440762,1.3985489238045317,1.5323850465858768,0.585523748999127,-0.05207916937521549,119.747388169,39.915796056333335,79.354676771,39.92948329348464,-2.348203931,0
31.75424991,1.14787316,76.00266451,0,-2.5390574565699993,-0.5116748554715678,-8.013164663067,-0.29402029057254253,-0.9159457618999909,-2.3836430216958475,0.7644781246237523,0.9457610098091881,1.113668867350318,1.0713884262955242,0.417804424317486,0.03614864552318926,108.90478758,36.30159586,74.85479135,37.63401006277095,1.14787316,0
31.88498056,-2.234670976,77.00277952,0,-2.408326806569999,-0.4853298090956509,-11.395708799067,-0.41813312882794856,0.08416924810001092,0.21904074369949822,0.0,0.9952877397634289,1.3976364235602696,1.4948815926353498,0.4140757040808219,-0.07008537771285447,106.653089104,35.551029701333334,79.23745049600001,39.745733450353086,-2.234670976,0
32.6202171,-1.203659157,77.00296455,0,-1.67309026657,-0.33716378419201415,-10.364696980067,-0.38030308197975604,0.08435427810000817,0.21952226289707924,0.0,1.2356863465537973,1.3976821583230858,1.0971140127625751,0.423622867859795,-0.03689917563733273,108.419522493,36.139840831,78.206623707,39.221930234473895,-1.203659157,0
34.37203021,-1.227016454,76.96783874,1,0.07872284343000047,0.015864351328532394,-10.388054277066999,-0.3811601115728931,0.04922846810001147,0.12811140062699616,0.0,1.6472253604919638,1.3889622316863242,1.107707747557992,0.4465765224294964,-0.03569810717625029,110.112852496,36.704284165333334,78.194855194,39.1495645069876,-1.227016454,0
31.96853161,2.932850887,76.99112083,0,-2.3247757565699985,-0.46849246997887484,-6.228186936067,-0.22852560875513628,0.0725105581000065,0.18870034995939375,1.369364579433208,1.0257023841856434,1.39475046230635,1.7125568273782916,0.41522361085461273,0.09174180506748007,111.892503327,37.297501109,74.058269943,37.31561702127567,2.932850887,0
31.67853455,23.29789346,77.03223712,2,-2.6147728165699995,-0.5269331340050964,14.136855636933001,0.5187117171459993,0.11362684810001156,0.29570074432033827,3.190389657699915,0.9159133406710512,1.404891386970613,4.826789146005862,0.4112373640325952,0.7354473006881154,132.00866513,44.00288837666667,53.73434366000001,28.909551969485808,23.29789346,0
32.23841784,-0.249055967,76.9803437,0,-2.054889526570001,-0.41410457207144996,-9.410093790067,-0.3452766324923384,0.06173342810001259,0.16065411426842133,0.0,1.1180684474542728,1.3920752917945967,0.499055074115072,0.41878765242785404,-0.007725439893192976,108.969705573,36.323235191,77.22939966700001,38.776401880842144,-0.249055967,0
31.89921102,77.74202291,77.00921489,2,-2.3940963465699987,-0.48246206439576117,68.580985086933,2.516384226565175,0.0906046181000022,0.23578805061501937,4.366176976193965,1.0005337762311517,1.3992258577407068,8.817143693396405,0.41422589038648117,2.43711421025879,186.65044882,62.216816273333336,45.84281189000001,26.258372819374255,77.74202291,0
45.18356742,0.483655915,77.00617703,0,10.890260053430005,2.1946223487254763,-8.677381908067,-0.31839185356791044,0.08756675810001013,0.22788237094371513,0.3945092546532123,2.7728442877051456,1.398475869361399,0.6954537475634163,0.5867524992916467,0.01070424342106444,122.673400365,40.891133455,76.522521115,38.44142038812847,0.483655915,0
31.32660387,-0.410735636,77.01335119,0,-2.9667034965699983,-0.5978547586257031,-9.571773459067,-0.3512090081838243,0.09474091810000118,0.24655229347824978,0.0,0.7641302130287898,1.4002461260419694,0.6408866015138716,0.406768475584779,-0.013111399645907431,107.929219424,35.97640647466667,77.42408682599999,38.92091729914353,-0.410735636,0
32.17072042,16.42724044,76.97590375,1,-2.122586946569996,-0.4277470627148437,7.266202616932999,0.2666126423978798,0.05729347810000718,0.14909965736232897,2.8580345245650225,1.0956888763259531,1.3909710931406343,4.0530532244223,0.41793234551101527,0.5106270458015734,125.57386461,41.85795487,60.54866331,31.41523580404714,16.42724044,0
31.89318642,0.84029678,77.00720715,1,-2.4001209465699986,-0.48367615127130525,-8.320741043067,-0.3053059311931157,0.08859687810000594,0.23056313922895277,0.6099268520927605,0.9983161753964521,1.3987302489303328,0.9166770314565539,0.4141584558925475,0.02634721857474351,109.74069035,36.58023011666666,76.16691037,38.29916242933715,0.84029678,0
31.74772421,0.992083343,77.01300594,1,-2.5455831565699967,-0.5129899248079113,-8.168954480067,-0.2997365548936418,0.09439566810000599,0.2456538202416665,0.6891809971426077,0.9432233158057265,1.4001610057695446,0.9960338061531847,0.4122384707655203,0.0312489583564718,109.75281349299999,36.58427116433333,76.020922597,38.24054534072271,0.992083343,0
31.74145816,-1.857147966,77.0181521,1,-2.5518492065699974,-0.5142526690675309,-11.018185789067,-0.40428099552415886,0.09954182810000134,0.2590461070808719,0.0,0.9407805180429797,1.4014290246213963,1.3627721621753213,0.4121295679316933,-0.05850858829893818,106.902462294,35.634154098,78.875300066,39.58147358771116,-1.857147966,0
31.58965258,0.885506346,76.96091592,2,-2.7036547865699987,-0.5448447685118691,-8.275531477067,-0.30364709472950924,0.042305648100011695,0.11009556140391163,0.6341964033961054,0.8796992469491032,1.3872346464130865,0.9410134674913,0.4104635683178916,0.028031530759192326,109.436074846,36.47869161533333,76.075409574,38.27262745722748,0.885506346,0
31.98085408,0.750155319,76.97334611,1,-2.3124532865699976,-0.46600922642722215,-8.410882504067,-0.30861341577258644,0.05473583810000093,0.142443694758846,0.5597045377113304,1.030110807143618,1.390334463902815,0.8661150726087152,0.41547958196877227,0.02345638717674962,109.704355509,36.568118503,76.223190791,38.31808906711277,0.750155319,0
46.18161526,-0.281570413,77.01608699,2,11.888307893430003,2.395750520506031,-9.442608236067,-0.3464696576281861,0.0974767181000118,0.25367189689805664,0.0,2.833339066152862,1.4009203726345605,0.5306320881740945,0.5996359522441124,-0.006097023790046105,122.91613183700001,40.97204394566667,77.297657403,38.91126681254716,-0.281570413,0
32.46230171,1.839581379,76.99537058,1,-1.8310056565699995,-0.36898714216522843,-7.321456444067,-0.2686400244613062,0.07676030810000611,0.19975983334019798,1.0436566395478442,1.1887039849327006,1.3958033990731138,1.3563116820996566,0.42161367682044243,0.056668234395871056,111.297253669,37.09908455633333,75.155789201,37.79183746497814,1.839581379,0
32.30583094,-0.489775152,76.97493846,1,-1.987476426569998,-0.4005193780420131,-9.650812975067,-0.3541091384617086,0.056328188100010834,0.1465876016619661,0.0,1.139867178275764,1.3907308677545185,0.6998393758570605,0.4196928398597535,-0.015160580074508987,108.790994248,36.26366474933334,77.464713612,38.883721530918585,-0.489775152,0
31.82674126,0.624892535,76.98655611,1,-2.4665661065699993,-0.4970662845082718,-8.536145288066999,-0.3132095774263404,0.06794583810000177,0.1768211935435854,0.48544168128717097,0.9735264309497441,1.393618250844687,0.7905014452864713,0.4134064758153205,0.019634197238759428,109.438189905,36.479396635,76.361663575,38.392855032079304,0.624892535,0
31.93366746,-0.758143097,76.98252111,1,-2.359639906569999,-0.47551834836781376,-9.919180920067,-0.363956137055527,0.06391083809999998,0.16632057222666818,0.0,1.0131232468834683,1.3926163601050656,0.8707141304699264,0.41481711153046036,-0.02374118394664388,108.15804547299999,36.05268182433333,77.740664207,39.033670431264476,-0.758143097,0
42.11243743,-0.822342064,76.99978777,0,7.819130063430002,1.5757233987621806,-9.983379887067,-0.36631173558937424,0.08117749810000419,0.21125505997584423,0.0,2.559779059089941,1.396896647720549,0.9068307802451349,0.5469162721444697,-0.01952729632046624,118.289883136,39.429961045333336,77.822129834,38.98035059668793,-0.822342064,0
32.51755685,53.79484728,77.04972705,0,-1.7757505165699996,-0.35785203937328347,44.633809456933,1.6377107145161396,0.131116778100008,0.3412162664490299,4.003596161795858,1.2053954918259735,1.4091741217305342,7.334497070692714,0.4220333760152707,1.6543323311101608,163.36213118,54.45404372666667,44.5321702,22.27340231412605,53.79484728,0
31.83375177,53.80330184,76.98896248,1,-2.4595555965699987,-0.4956535154975704,44.642264016933005,1.6380209305534215,0.07035220810000453,0.18308349344901484,4.003750444693602,0.9761711408328849,1.3942152751882542,7.335073403859024,0.41348461300261163,1.690133809504986,162.62601609,54.20867203,45.15521071,22.580334526072242,53.80330184,0
41.80803758,-0.907961265,77.01559674,1,7.514730213429999,1.514380261823198,-10.068999088066999,-0.36945328869792765,0.09698646810001321,0.25239607791401664,0.0,2.535960894230389,1.400799582394631,0.9528700147449284,0.5428515626294481,-0.02171738488191952,117.91567305500001,39.30522435166667,77.923558005,39.02202299447826,-0.907961265,0
31.99062408,1.505664787,76.94361856,0,-2.302683286569998,-0.46404036064790644,-7.655373036067,-0.2808921442585369,0.0250082881000111,0.06508118045166465,0.918554083360651,1.0335923112045946,1.3829050112574535,1.2270553316782418,0.4157670806616262,0.04706581328857235,110.43990742700001,36.81330247566667,75.437953773,37.949504444002216,1.505664787,0
32.0691429,-0.213942562,76.980981,2,-2.224164466569995,-0.44821712444214795,-9.374980385067,-0.34398824594654887,0.062370728100006545,0.1623126138880508,0.0,1.061140595753478,1.3922336858599442,0.46253925455035705,0.41658526647529653,-0.006671290093278729,108.836181338,36.278727112666665,77.194923562,38.76924690226011,-0.213942562,0
31.93538376,0.532892555,76.9865279,2,-2.3579236065699973,-0.47517247689012254,-8.628145268067,-0.3165852550755147,0.06791762810000535,0.17674778027783258,0.42715650937077176,1.0137462125105716,1.393611249783228,0.7299949006671211,0.41481781574386584,0.01668658633690437,109.454804215,36.48493473833333,76.453635345,38.42932994400109,0.532892555,0
32.25710971,3.154851723,77.00688773,2,-2.036197656569996,-0.41033775700549,-6.006186100067,-0.22037991937364731,0.0882774581000092,0.22973188558310048,1.4242767412687114,1.1241604246248755,1.3986513777385812,1.776190227143478,0.41888602749682863,0.09780329525985622,112.418849163,37.472949721,73.85203600700001,37.2012707559845,3.154851723,0
45.54342478,-0.93596492,76.97296798,1,11.250117413430004,2.2671413703773613,-10.097002743067,-0.37048080318519916,0.054357708100013724,0.1414596551210691,0.0,2.7950805569672954,1.3902403081208559,0.9674527998822475,0.59168075992799,-0.020551043404622864,121.58042784000001,40.52680928,77.90893290000001,39.195985505027245,-0.93596492,0
32.40807089,0.502238834,76.98007458,0,-1.8852364765700003,-0.3799158223783538,-8.658798989067,-0.31771000619876194,0.0614643080999997,0.15995376056112445,0.4069565513535526,1.1720464510058322,1.39200839737617,0.7086881077032406,0.4209929731274499,0.015497337691199502,109.890384304,36.630128101333334,76.477835746,38.41333317247889,0.502238834,0
32.07259877,1.208318319,76.98555982,2,-2.220708596569999,-0.4475206920797368,-7.952719504067,-0.2918024273486909,0.06694954810001263,0.17422846392482141,0.7922312842376671,1.06233582256261,1.3933709652878934,1.0992353337661596,0.41660537935144704,0.03767447377715337,110.266476909,36.755492303000004,75.777241501,38.105048238472015,1.208318319,0
31.67569734,0.665849914,77.01640956,1,-2.6176100265699986,-0.5275048930304527,-8.495187909066999,-0.3117067628729127,0.09779928810000627,0.2545113480549683,0.5103354520514622,0.9147773833396935,1.4009998410823563,0.8159962708248121,0.41128503795074817,0.021020844019061964,109.357956814,36.452652271333335,76.350559646,38.398782055897854,0.665849914,0
32.16332403,51.05891143,76.95368228,2,-2.1299833365699996,-0.42923759487057356,41.897873606933004,1.5373233285795391,0.035072008100001995,0.09127084904134085,3.9523759894361636,1.0932131327554837,1.385426301965536,7.145551863222322,0.4179569145894169,1.5874885877742848,160.17591774,53.391972579999994,44.79035825,22.486138592209763,51.05891143,0
32.13300089,0.934255172,77.01477186,0,-2.1603064765699997,-0.43534836177614183,-8.226782651067,-0.3018583951846649,0.09616158810000286,0.25024942301637015,0.6597223283484661,1.0829987086488944,1.4005963114132358,0.9665687621685277,0.41723165175611737,0.029074630972798915,110.082027922,36.69400930733333,76.080516688,38.24478203906385,0.934255172,0
31.58800393,0.65737543,76.98679092,1,-2.7053034365699986,-0.5451770070550697,-8.503662393067,-0.3120177099647174,0.0681806481000109,0.1774322594398729,0.5052352848991258,0.8790149753458912,1.3936765232867268,0.8107869202201032,0.4103041981905719,0.020810919570791644,109.23217028,36.41072342666667,76.32941549,38.39256288357043,0.65737543,0
31.68111854,0.215093384,76.95395752,0,-2.612188826569998,-0.5264124042727426,-8.945944439067,-0.3282459919416619,0.035347248100009665,0.0919871293415509,0.1948209330982495,0.9169467926192331,1.385495169351208,0.46378161239962934,0.4116892639352167,0.006789323960866567,108.850169444,36.28338981466667,76.738864136,38.575886158131006,0.215093384,0
32.04876759,0.715982349,77.00795266,0,-2.244539776570001,-0.4523231889868728,-8.445055474066999,-0.30986729573033095,0.0893423881000075,0.23250324287157678,0.5399857148823318,1.0540645217920388,1.3989143060733038,0.8461574020239969,0.4161747724332401,0.02234040122288518,109.772702599,36.590900866333335,76.291970311,38.34826481744131,0.715982349,0
32.30975388,-1.515337132,76.0118371,1,-1.9835534865699955,-0.3997288209979687,-10.676374955067,-0.3917392189653009,-0.9067731718999994,-2.3597724159746063,0.0,1.1411211891620876,1.1166761797479883,1.2309903054045552,0.4250621309472058,-0.04690029799446129,106.806253848,35.602084616,77.527174232,38.86830672097935,-1.515337132,0
46.86989427,-2.143906655,74.99707519,1,12.576586903430005,2.534453590046496,-11.304944478067,-0.41480279017198174,-1.9215350818999894,-5.0005730463926445,0.0,2.8730230477476604,0.7129116600696863,1.4642085421824311,0.6249562869792191,-0.04574165661454442,119.72306280500001,39.90768760166667,77.140981845,39.038916625235565,-2.143906655,0
48.1864386,0.401930375,75.95287959,0,13.893131233430005,2.7997656758488723,-8.759107448067,-0.3213905398583281,-0.9657306818999984,-2.513202524103001,0.33785012618095206,2.9448052673378946,1.097186799808128,0.6339797906873689,0.6344254256808828,0.008341151127505175,124.54124856499999,41.51374952166666,75.55094921499999,38.21491942257577,0.401930375,0
47.02043767,87.70494871,77.00689799,1,12.727130303430002,2.56479133299039,78.54391088693299,2.881945457594153,0.08828771810000546,0.2297585860477033,4.485315679303776,2.8814969272741173,1.3986539112346517,9.365092028912477,0.6106003265513393,1.8652516052760169,211.73228437,70.57742812333333,40.68451104,21.090541048435703,87.70494871,0
31.60932961,-0.170252399,77.01128318,1,-2.6839777565699983,-0.5408794224519335,-9.331290222067,-0.34238515965535754,0.09267290810001327,0.24117053638048985,0.0,0.8878302513764034,1.3997361565424467,0.4126165277833645,0.4104506235231565,-0.005386143765605038,108.450360391,36.150120130333335,77.18153557900001,38.79061023618052,-0.170252399,0
32.23907976,-2.868359513,77.04592127,2,-2.054227606569995,-0.4139711809110962,-12.029397336067,-0.4413845276966094,0.12731099810000046,0.3313121636992013,0.0,1.1182848127299894,1.4082437657730482,1.6936231909725374,0.41843979292014005,-0.08897150431655174,106.41664151699999,35.472213839,79.914280783,40.05512370778093,-2.868359513,0
31.18670175,1.785013276,76.98779085,1,-3.106605616569997,-0.6260480540731674,-7.376024547067,-0.2706422458276036,0.06918057810000278,0.1800344617380972,1.0242526403337742,0.6967526231335024,1.3939246363876021,1.3360438899976304,0.40508632603417116,0.05723635776148217,109.959505876,36.65316862533333,75.202777574,37.89823391380483,1.785013276,0
34.30831054,135.3547064,76.98769025,0,0.015003173430002903,0.003023463126660427,126.19366857693299,4.630317816182724,0.06907997810000666,0.1797726618609124,4.915259625747603,1.6348780874812356,1.3938996772472776,11.634204158428714,0.445633710830366,3.945245345058447,246.65070719,82.21690239666667,101.04639585999999,50.725753063213276,124.384680729,1
48.19978891,2.389464213,76.02003861,1,13.906481543430004,2.802456051335285,-6.771573610067,-0.24846363754906567,-0.898571661899993,-2.3384289337597517,1.2206718596387212,2.9455074113473407,1.119357478148903,1.5457891877613843,0.6340405655834412,0.049574162407381335,126.609291733,42.203097244333335,73.630574397,37.17977413470724,2.389464213,0
32.00613577,-1.630421539,76.94685448,0,-2.2871715965699977,-0.46091442046158554,-10.791459362067,-0.3959619140189125,0.028244208100005608,0.07350228839014444,0.0,1.0390950667912915,1.3837164085537779,1.2768796102217312,0.4159511856637082,-0.05094090394965216,107.322568711,35.774189570333334,78.577276019,39.42392355820489,-1.630421539,0
31.82375578,1.315525208,76.98279291,2,-2.469551586569999,-0.49766792313742536,-7.845512615066999,-0.2878687754170839,0.06418263810000724,0.16702790032431702,0.8396365335129671,0.9723980337116044,1.3926838796007885,1.1469634728272735,0.4133879034996432,0.041337835036080864,110.122073898,36.707357966,75.667267702,38.06929245605782,1.315525208,0
45.72118711,0.168386712,77.00132101,0,11.427879743430005,2.302964314941173,-8.992651111067,-0.3299597604526736,0.08271073810000473,0.21524513993320452,0.15562391864924963,2.8058850252477687,1.3972758433220434,0.41034949981692437,0.5937714563402209,0.003682903243784493,122.890894832,40.96363161066667,76.832934298,38.63677909656968,0.168386712,0
45.28864334,-0.875152908,77.00244375,0,10.995335973430002,2.2157974135277403,-10.036190731067,-0.3682494793337188,0.0838334781000043,0.2181669410676149,0.0,2.779388395102299,1.3975534243180763,0.935496075887013,0.5881455256003415,-0.019323892793740447,121.415934182,40.471978060666665,77.877596658,39.1615910506249,-0.875152908,0
31.81315004,0.274042766,77.00953816,2,-2.480157326569998,-0.49980520855710997,-8.886995057067,-0.3260830120013398,0.09092788810001196,0.23662932344109638,0.2421951248754232,0.9683791422731726,1.3993056336955585,0.5234909416599298,0.41310661493380635,0.00861413462801703,109.096730966,36.36557698866667,76.73549539400001,38.56977452206402,0.274042766,0
44.90142576,0.359288266,76.99880288,0,10.608118393430004,2.1377647172727285,-8.801749557067,-0.32295517078830166,0.08019260810000617,0.20869199753995993,0.30696122893749045,2.75505769217437,1.396652992270513,0.5994065948919814,0.5831444580616777,0.008001711569665945,122.259516906,40.753172302,76.639514614,38.48778774015514,0.359288266,0
31.70885825,0.265393003,77.02583235,1,-2.584449116569999,-0.5208222542474467,-8.895644820067,-0.32640039045761504,0.10722207810000839,0.27903307036942,0.235382748238514,0.9279743715604647,1.4033184603108866,0.5151630838870348,0.41166524100969043,0.008369679934165403,109.00008360300001,36.333361201,76.760439347,38.58860949611909,0.265393003,0
31.60255937,2.086951326,77.00411952,1,-2.6907479965699963,-0.5422437718740166,-7.074086497067,-0.25956348769287085,0.08550924810000993,0.22252793888280736,1.1271839779839887,0.8850400855111084,1.3979675905938604,1.4446284387343342,0.4104008870771011,0.066037412841433,110.693630216,36.89787673866667,74.917168194,37.73825396170574,2.086951326,0
31.9022414,-0.778710018,76.96900554,1,-2.3910659665699967,-0.48185137744792833,-9.939747841067,-0.3647107817362327,0.05039526810000439,0.1311478628209241,0.0,1.0016473755474475,1.3892531121958103,0.8824454759360489,0.414481657411295,-0.02440925651044517,108.092536922,36.03084564066666,77.747715558,39.03794113876853,-0.778710018,0
32.14662413,50.30991247,76.97400025,2,-2.1466832365699986,-0.43260298500649924,41.148874646933,1.50984094164286,0.055389978100009785,0.14414601853290748,3.9378839590471366,1.0876006424189457,1.3904973262746614,7.092948080311881,0.4176296360844305,1.5650138161174993,159.43053685,53.14351228333334,44.827376120000004,22.547624672625243,50.30991247,0
32.17830769,-2.683881376,77.00168247,1,-2.114999676570001,-0.4262180641210444,-11.844919199067,-0.43461562705302015,0.08307219810001243,0.21618579782200054,0.0,1.0982221592441865,1.3973652174152236,1.6382555893388553,0.4178909634168807,-0.08340653953742652,106.496108784,35.498702928,79.68556384600001,39.946414604644254,-2.683881376,0
31.63629738,0.922513315,77.02022879,0,-2.6570099865699994,-0.5354448349905767,-8.238524508067,-0.30228922923739737,0.1016185181000111,0.2644504528758463,0.6536333482514415,0.898867639477906,1.4019402680745827,0.9604755671020476,0.41075309001619636,0.029159963783348286,109.57903948500001,36.526346495000006,76.097715475,38.28380872364775,0.922513315,0
31.88058269,0.800574029,76.00208369,2,-2.4127246765699972,-0.48621607478089923,-8.360463794067,-0.30676344458294924,-0.916526581899987,-2.3851545386408906,0.5881055190627279,0.9936608893107955,1.1134781357138979,0.8947480254239178,0.4194698450711668,0.025111649045845934,108.683240409,36.227746803,75.201509661,37.78875680268386,0.800574029,0
35.34378335,-0.097121903,77.03066988,2,1.0504759834300046,0.21169357377363557,-9.258159726067,-0.33970184406311255,0.11205960810001159,0.2916221832911641,0.0,1.8187754782024605,1.4045067221617282,0.3116438720719533,0.4588274118118391,-0.0027479203143112203,112.27733132700001,37.425777109,77.127791783,38.60602400972984,-0.097121903,0
31.80456578,0.688512382,76.99068101,0,-2.488741586569997,-0.5015351221451088,-8.472525441066999,-0.3108752280540712,0.07207073810000963,0.1875557692239361,0.5238478939525175,0.9651143926254272,1.394641427232705,0.8297664623253943,0.4130962987945611,0.02164822387811817,109.483759172,36.49458639066667,76.302168628,38.36668417169114,0.688512382,0
31.72960276,-2.263403188,76.9978085,2,-2.563704606569999,-0.5166417879375517,-11.424441011067,-0.41918737564256453,0.07919822810001165,0.20610423847551038,0.0,0.936142342284367,1.3964069288119525,1.5044610955421878,0.41208448611775117,-0.07133411451085829,106.46400807200001,35.48800269066667,79.261211688,39.76404276594136,-2.263403188,0
31.91062841,19.80459391,77.01197345,1,-2.382678956569997,-0.48016121399042794,10.643556086933001,0.39053502392492007,0.09336317810000594,0.24296688430523536,3.0351738233787517,1.0047229709609808,1.3999064054525359,4.450235264567481,0.4143593075998586,0.6206268655983869,128.72719577,42.90906525666667,57.20737954,30.1478901129248,19.80459391,0
31.54192824,-0.70741761,75.96541502,2,-2.751379126569997,-0.554462252633305,-9.868455433067,-0.3620949095562452,-0.9531952518999987,-2.4805805158069263,0.0,0.8596993812234807,1.1013625066825228,0.8410812148657227,0.41521431583677126,-0.022427848487558143,106.79992564999999,35.599975216666664,76.67283262999999,38.4971638543104,-0.70741761,0
32.02683565,18.48701997,77.04882571,1,-2.2664717165699955,-0.45674294805954385,9.325982146932999,0.34219039493269143,0.13021543810000935,0.33887063323520794,2.9697486013672267,1.0463914765496487,1.40895385955314,4.299653470920651,0.4156693491329091,0.5772352784020585,127.56268133,42.52089377666667,58.561805740000004,30.658852145127163,18.48701997,0
31.43625615,23.5842034,76.98521968,0,-2.8570512165699995,-0.5757574585524228,14.423165576933,0.5292170462253579,0.06660940810000682,0.1733432888728274,3.202104098467891,0.8139382652748046,1.3932865263578695,4.856357009117019,0.40834144362161745,0.7502230080211696,132.00567923,44.00189307666667,53.40101628,28.832942244311678,23.5842034,0
32.24155237,0.161319277,76.98114003,0,-2.051754996569997,-0.41347289665167036,-8.999718546067,-0.33021907988259624,0.0625297581000126,0.16272647108956062,0.1495566666323646,1.1190926339739689,1.3922732071461141,0.40164571079497413,0.4188240384412499,0.005003458584911228,109.384011677,36.46133722566667,76.819820753,38.58336627747568,0.161319277,0
32.25251129,76.90825927,77.02908515,2,-2.040796076569997,-0.41126443784243194,67.747221446933,2.485791640738068,0.11047487810000689,0.28749810655768204,4.35553197126169,1.1226651649635302,1.4041176140798892,8.7697354161913,0.41870562020162305,2.3845664665895088,186.18985571000002,62.06328523666667,44.77657386,25.81695822899678,76.90825927,0
32.47128832,0.533819556,76.9994201,2,-1.8220190465699986,-0.36717614637187546,-8.627218267067,-0.31655124140989804,0.08080982810000137,0.21029824127953226,0.4277610662999396,1.1914377082534298,1.3968056954722525,0.7306295614057783,0.4217082135959072,0.0164397400651167,110.00452797599999,36.668175991999995,76.465600544,38.405174341970934,0.533819556,0
32.06492338,17.06825719,76.99501039,1,-2.2283839865699946,-0.4490674487546492,7.907219366933001,0.29013292920360867,0.07640011810001113,0.19882248047970574,2.8941566522493827,1.0596793178463668,1.3957141998018183,4.131374733669169,0.4164545572645314,0.532303054506689,126.12819096000001,42.042730320000004,59.92675320000001,31.184473873585905,17.06825719,0
32.1904498,2.656458065,76.98955841,2,-2.1028575665699947,-0.42377116700050194,-6.504579758067,-0.23866705739042504,0.07094813810000744,0.18463433242334404,1.2964949370455732,1.1022629336142917,1.3943630713496151,1.6298644314788884,0.41811448262189765,0.08252317066028786,111.836466275,37.27882209166667,74.333100345,37.426876721934875,2.656458065,0
31.76915332,-0.721892989,76.96846617,0,-2.524154046569997,-0.5086714968283624,-9.882930812067,-0.36262604242555263,0.0498558981000059,0.12974421471195577,0.0,0.9515325667022991,1.3891186590331432,0.8496428596769351,0.41275543723420627,-0.022723078547468238,108.015726501,36.005242167,77.690359159,39.018025489552414,-0.721892989,0
32.07167014,-0.718493242,77.00192652,0,-2.221637226569996,-0.4477078310591268,-9.879531065066999,-0.3625012983771218,0.08331624810000449,0.2168209097507017,0.0,1.0620147924042542,1.3974255563593752,0.8476398067575637,0.4165047703730521,-0.02240273788240147,108.355103418,36.118367806,77.72041976199999,39.01791554523867,-0.718493242,0
39.82610328,-0.711248769,77.00085883,1,5.53279591343,1.114977741851636,-9.872286592066999,-0.3622354830412256,0.0822485581000052,0.21404236988109898,0.0,2.365242980911506,1.3971615537050714,0.84335565984939,0.5172163449593521,-0.017858858702310416,116.115713341,38.705237780333334,77.71210759899999,38.868176847787645,-0.711248769,0
32.39922558,90.51395602,77.02610282,1,-1.8940817865699984,-0.3816983431732807,81.35291819693299,2.985013992964857,0.10749254810001219,0.2797369372957212,4.516491485459492,1.1693030117667116,1.4033849342175042,9.513882279069886,0.420626566491183,2.793707306453857,199.93928442,66.64642814,58.114730439999995,30.416010724213002,90.51395602,0
46.82729308,-1.385586686,75.99967874,0,12.533985713429999,2.5258685311775975,-10.546624509067,-0.38697839531585454,-0.9189315319000002,-2.3914131431604067,0.0,2.8706119927147244,1.1126880027049182,1.1771094621996716,0.6161511895865787,-0.02958929643965454,121.44138513399999,40.48046171133333,77.38526542599999,39.08108912990829,-1.385586686,0
32.33961251,2.938852781,75.99970581,1,-1.9536948565699959,-0.3937116628788028,-6.222185042067,-0.22830538632216932,-0.9189044618999986,-2.3913426966129308,1.3708895085759223,1.150614640614924,1.1126968998785103,1.714308251453046,0.4255228588032497,0.09087470325182621,111.278171101,37.09272370033333,73.060853029,36.76161191816863,2.938852781,0
31.75216575,2.533528571,76.97537284,1,-2.5411416165699983,-0.5120948586755204,-6.627509252067,-0.2431776056027192,0.056762568100012345,0.14771802542594537,1.2622969668667547,0.9449512278467892,1.3908389761952895,1.5917061823716085,0.41249771408710056,0.07979073021843462,111.261067161,37.087022387,74.441844269,37.50656697227193,2.533528571,0
32.57924612,-3.172654261,77.00107346,1,-1.7140612465699974,-0.3454203205755378,-12.333692084067,-0.45254975816279763,0.0824631881000073,0.21460091965886133,0.0,1.2237072734170449,1.3972146298470411,1.781194616261794,0.42310118850255846,-0.09738267582777708,106.407665319,35.469221773,80.173727721,40.1649178217317,-3.172654261,0
32.00300379,3.741053095,76.9945038,0,-2.290303576569997,-0.4615455820013501,-5.419984728067,-0.19887092698717426,0.0758935281000106,0.1975041385335,1.5562592829713826,1.0379864372675855,1.3955887318287332,1.9341802126482424,0.41565308943970247,0.11689693263330603,112.73856068500001,37.57952022833334,73.253450705,36.943743201491074,3.741053095,0
48.63227696,-0.071711898,75.98905274,2,14.33896959343,2.8896117239666057,-9.232749721067,-0.33876949618712493,-0.929557531899988,-2.419066080487144,0.0,2.967990972820497,1.1091893966528086,0.26779077280593516,0.639990558724386,-0.001474574110202754,124.549617802,41.516539267333336,76.06076463800001,38.52642303033641,-0.071711898,0
31.60478086,77.99723067,77.01476052,1,-2.688526506569996,-0.5417960937122875,68.83619284693299,2.5257483495935475,0.0961502481000025,0.2502199119765343,4.369412797042461,0.8859564691608433,1.4005935166667933,8.831604082498263,0.4103730276668135,2.467893340175707,186.61677205,62.205590683333334,46.39244980999999,26.50563116173185,77.99723067,0
31.902252,0.267000048,77.01860331,2,-2.391055366569997,-0.4818492413192426,-8.894037775067,-0.3263414245112342,0.09999303810000981,0.2602203289754179,0.23665193922376843,1.0016512686432568,1.401540126575698,0.5167204737573304,0.41421488075262164,0.008369316361449455,109.18785535800001,36.395951786000005,76.751603262,38.57262182101296,0.267000048,0
32.48182205,2.630106472,77.00467404,0,-1.8114853165699998,-0.3650533725207445,-6.530931351067,-0.23963395416051386,0.08606376810000427,0.22397101311641204,1.2892619789760869,1.1946325799199726,1.398104602356031,1.6217603004143368,0.4218162343147004,0.08097163967525525,112.116602562,37.372200854,74.374567568,37.427675974694296,2.630106472,0
31.99583958,-0.521939488,76.99671209,1,-2.2974677865699995,-0.46298932487799666,-9.682977311066999,-0.35528931730670105,0.07810181810000927,0.2032509581240603,0.0,1.035445885301807,1.3961355474031463,0.7224537964465271,0.41554812271792263,-0.01631272935914847,108.470612182,36.156870727333335,77.518651578,38.92648161309534,-0.521939488,0
32.26330287,-1.017009145,77.02876624,1,-2.030004496570001,-0.4090897016534104,-10.178046968067,-0.37345449055912194,0.11015596810000261,0.28666818012788736,0.0,1.1261707160888261,1.4040392919276379,1.0084687129504812,0.4188474517510661,-0.031522163666123024,108.275059965,36.091686655,78.045775385,39.1634798717556,-1.017009145,0
31.90047672,-1.09741176,76.97721331,2,-2.3928306465699976,-0.4822069985393761,-10.258449583067,-0.3764046358786173,0.05860303810000289,0.15250763596251013,0.0,1.0009990445125259,1.39129690251843,1.047574226487078,0.4144145381973878,-0.03440110739507759,107.78027827,35.92675942333333,78.07462507,39.192728716697424,-1.09741176,0
32.10507531,0.10745354,76.95614732,0,-2.1882320565700013,-0.4409759686164231,-9.053584283067,-0.3321955299258158,0.03753704810000613,0.0976858308433447,0.10206327171861312,1.0734987196546795,1.3860429070079552,0.3278010677224832,0.41718661875462215,0.003346933019639972,109.16867617,36.38955872333333,76.84869378,38.6030831995632,0.10745354,0
46.92851701,-1.281561228,75.02070281,2,12.635209643430002,2.5462673368915034,-10.442599051066999,-0.3831614769478754,-1.8979074618999903,-4.93908489515599,0.0,2.8763313826252586,0.7244277036726188,1.1320606114515246,0.6255408790732324,-0.02730879393478635,120.66765859200001,40.222552864,76.302264038,38.59062503609841,-1.281561228,0
31.74358297,-1.43044276,76.97356913,2,-2.5497243965699994,-0.5138244740115898,-10.591480583067,-0.3886242613957331,0.054958858100008,0.1430240785422839,0.0,0.941609536657947,1.3903899925595582,1.1960111872386479,0.41239587713534054,-0.04506242147552944,107.28670934,35.76223644666667,78.40401189,39.356186958799235,-1.43044276,0
31.94669858,1.336173593,77.01251929,2,-2.3466087865699983,-0.4728922965526491,-7.824864230067,-0.2871111416465544,0.09390901810000685,0.24438736984169956,0.8485143742768932,1.0178434699397345,1.400041011478185,1.1559297526234023,0.4148247383633314,0.041825090246145544,110.295391463,36.76513048766667,75.676345697,38.06757529774622,1.336173593,0
31.63924449,0.516383157,76.97742261,1,-2.6540628765699985,-0.5348509287442225,-8.644654666067,-0.3171910204879629,0.05881233810001163,0.15305231503109043,0.4163279973707126,0.9000664836559887,1.3913489650588131,0.7185980496772866,0.4110197900399696,0.016320969384785416,109.13305025700001,36.377683419,76.461039453,38.45012667301894,0.516383157,0
31.9160357,77.64588983,76.98251051,0,-2.3772716665699996,-0.47907152839781475,68.484852006933,2.5128568965646436,0.063900238100004,0.16629298695134798,4.364955369143188,1.006700871520903,1.392613726802051,8.811690520552796,0.4145881327326417,2.432817412758521,186.54443604,62.18147868,45.72985413000001,26.21274112168116,77.64588983,0
32.47836411,17.95167231,76.97923084,1,-1.8149432565699968,-0.3657502220328142,8.790634486933,0.3225473348972466,0.06062056810000627,0.15775802469250913,2.9418921761835737,1.193584914537818,1.3917986422323507,4.236941386188862,0.4219107327221155,0.5527270923028305,127.40926726000001,42.46975575333334,59.02755853,30.756041629751337,17.95167231,0
32.25609893,-0.092281108,75.9993198,2,-2.0372084365699976,-0.4105414509821962,-9.253318931067,-0.3395242248561765,-0.9192904718999984,-2.3923472430403256,0.0,1.1238319428354708,1.112570021393871,0.3037780571404064,0.4244261473715697,-0.0028608885823227918,108.163137622,36.054379207333334,76.09160090799999,38.1877353607735,-0.092281108,0
32.07571111,-2.767257438,76.96752478,1,-2.2175962565699976,-0.44689348842368787,-11.928295261067,-0.4376748745546996,0.048914508100011744,0.12729435600031588,0.0,1.063411016859959,1.3888839477442978,1.6635075707672629,0.416743435428645,-0.08627267349544747,106.275978452,35.42532615066667,79.734782218,39.97278842573367,-2.767257438,0
32.23986299,-1.429228535,77.00936028,1,-2.053444376569999,-0.41381334316858587,-10.590266358067,-0.3885797088622046,0.09075000810000233,0.23616641129240903,0.0,1.1185407707893358,1.3992617375954661,1.195503465072352,0.4186486221172305,-0.04433109691291846,107.819994735,35.939998245,78.438588815,39.34998480941424,-1.429228535,0
31.17947785,-0.577392121,76.97246988,1,-3.1138295165699965,-0.6275038257725737,-9.738429944067,-0.3573239939860434,0.053859608100012224,0.14016340741897,0.0,0.6931471805599453,1.3901162658287947,0.7598632251925342,0.4050731059239189,-0.01851833777523193,107.57455560900002,35.858185203000005,77.54986200100001,38.986061624185616,-0.577392121,0
41.86485427,-1.546592769,77.00671147,2,7.571546903430004,1.5258300506292373,-10.707630592067,-0.39288605568452195,0.08810119810000572,0.22927318929726268,0.0,2.540449867029573,1.3986078529528712,1.2436208300764346,0.543652013274941,-0.03694250843638471,117.324972971,39.108324323666665,78.553304239,39.34913270613468,-1.546592769,0
32.0896546,-0.0081219,76.97183733,0,-2.203652766569995,-0.4440835743699277,-9.169159723067,-0.33643624203903016,0.053227058100006275,0.1385172691255188,0.0,1.0682138181704885,1.3899587191519394,0.09012158453999797,0.4169012368188817,-0.00025310025452563595,109.05337003,36.351123343333335,76.97995923,38.66650511296464,-0.0081219,0
31.52526917,0.252755935,77.00333524,1,-2.7680381965699965,-0.5578194146433587,-8.908281888067,-0.3268640717323142,0.08472496810000507,0.2204869407944606,0.22534587242380458,0.8526227948682231,1.3977737772765335,0.5027483813996819,0.40940134167360853,0.008017566023606261,108.781360345,36.26045344833333,76.750579305,38.593773248098,0.252755935,0
46.05917809,1.999622937,76.992986,1,11.765870723430005,2.3710767892747864,-7.161414886067,-0.2627677545947299,0.07437572810000859,0.19355423939227792,1.0984865931020862,2.826111730716292,1.3952127215558978,1.4140802441870122,0.598225629173213,0.04341421137994494,125.051787027,41.683929009,74.993363063,37.68764027191576,1.999622937,0
45.34526272,1.464951461,76.98642299,1,11.051955353430003,2.2272074401119855,-7.696086362067,-0.2823860039811341,0.06781271810000078,0.17647476412358098,0.9021721160228873,2.7828969636640317,1.393585213147614,1.2103517922488487,0.5890033640981953,0.032306603618976595,123.79663717099999,41.26554572366666,75.521471529,37.92566721303684,1.464951461,0
32.07848585,1.208864281,77.00989412,1,-2.214821516569998,-0.4463343184510678,-7.9521735420669994,-0.29178239482563273,0.09128384810000512,0.23755566821529625,0.7924784834377999,1.0643686095079765,1.3993934694648738,1.0994836428978834,0.4165501822851983,0.037684579283701475,110.297244251,36.765748083666665,75.801029839,38.117277599516605,1.208864281,0
32.44695511,-0.593116671,76.9944391,0,-1.8463522565700003,-0.3720798131548752,-9.754154494067,-0.3579009616329747,0.07582882810000058,0.19733576425857818,0.0,1.1840182070429015,1.3955727063402876,0.7701406826028605,0.42141945662385566,-0.018279578182595818,108.848277539,36.28275917966666,77.587555771,38.935745110054874,-0.593116671,0
31.88791187,-0.036436428,77.00878163,2,-2.405395496569998,-0.484739086890168,-9.197474251067,-0.33747516312701864,0.09017135810000809,0.23466054152166035,0.0,0.9963706154720423,1.3991189286815562,0.19088328371022958,0.414081495395274,-0.0011426407287470739,108.860257072,36.286752357333334,77.045218058,38.71051219792815,-0.036436428,0
31.5578602,-1.246068954,76.98476463,0,-2.7354471665699975,-0.5512516189750218,-10.407106777067,-0.3818591888815066,0.06615435810000747,0.17215907382195897,0.0,0.8664205717189509,1.3931735501480207,1.1162745871872208,0.40992344318708035,-0.039485215620379245,107.296555876,35.765518625333335,78.230833584,39.28478233209501,-1.246068954,0
31.68274559,-1.751999923,76.97990907,1,-2.610561776569998,-0.5260845185955435,-10.913037746067,-0.40042288709185797,0.06129879810001171,0.1595230399083274,0.0,0.9175969743678399,1.3919672547881563,1.3236313395352952,0.41157161084223126,-0.05529823363082361,106.910654737,35.636884912333336,78.731908993,39.51461485015165,-1.751999923,0
32.19274226,-0.884569488,77.03047334,0,-2.100565106569995,-0.4233091868526565,-10.045607311067,-0.36859499395924006,0.11186306810000701,0.2911107106483701,0.0,1.1030240126867792,1.4044584727625522,0.9405155437312028,0.4179221604933454,-0.027477294521187693,108.338646112,36.112882037333335,77.915042828,39.10516713463378,-0.884569488,0
31.94606222,0.993837406,76.96996378,1,-2.347245146569996,-0.4730205368215663,-8.167200417066999,-0.2996721945398205,0.05135350810000716,0.13364157171082433,0.690061126590073,1.0176134799088956,1.3894919359242919,0.9969139411202955,0.4150458209421049,0.031109855357006957,109.909863406,36.636621135333336,75.976126374,38.20463259741107,0.993837406,0
46.95671079,87.90161798,77.00921656,0,12.663403423430005,2.5519489918179685,78.74058015693299,2.8891616771957054,0.09060628810000537,0.23579239659708445,4.4875303423542405,2.8779185903029747,1.399226269876481,9.375586273935086,0.6097544200265993,1.8719713248473184,211.86754533,70.62251511000001,40.944907189999995,21.20645710056261,87.90161798,0
32.23223592,0.51307885,77.03757898,0,-2.061071446569997,-0.41535036232103645,-8.647958973067,-0.3173122626369928,0.11896870810001303,0.309602317799391,0.41414654845158394,1.1160454672456392,1.4062013873780757,0.7162952254482784,0.4183962674887753,0.015918189335523164,109.78289375,36.59429791666667,76.52450013,38.4482830394761,0.51307885,0
45.78048905,-0.255962937,77.03187947,0,11.487181683430002,2.314914935239334,-9.417000760067,-0.34553006411539433,0.11326919810001357,0.2947700015163797,0.0,2.8094636091698644,1.4048036180593835,0.5059277982084005,0.5943057442019628,-0.005591092116323906,122.55640558300001,40.852135194333336,77.28784240700001,38.87890365966246,-0.255962937,0
33.93805505,-0.531132029,77.03315909,1,-0.35525231656999523,-0.07159100605090252,-9.692169852067,-0.3556266114582087,0.11454881810000472,0.2981000647256622,0.0,1.5599487159985341,1.4051176070178544,0.7287880549240636,0.44056423247273285,-0.015650042778451948,110.44008211100001,36.81336070366667,77.564291119,38.86200395180042,-0.531132029,0
